0	5720	0.05069258064031601
0	6238	0.0840018168091774
0	5428	-0.13182592391967773
1	4160	-0.2080894559621811
0	4374	0.035658348351716995
0	4836	0.07812412083148956
0	5008	0.02942652441561222
0	5192	0.03179723769426346
0	5166	-0.004536096937954426
0	5026	-0.02465454302728176
0	5044	0.003201252082362771
0	5094	0.008975478820502758
0	4988	-0.019191309809684753
0	4986	-0.0003651989682111889
0	5132	0.026902856305241585
0	4940	-0.03561711683869362
0	4982	0.00785702746361494
0	5176	0.03658950328826904
0	5064	-0.021276595070958138
0	5206	0.027163170278072357
0	5304	0.018835529685020447
0	5152	-0.02933305874466896
0	5294	0.02750054933130741
0	5246	-0.009312070906162262
0	5128	-0.022908471524715424
0	5058	-0.013614263385534286
0	4788	-0.05258169770240784
0	4584	-0.03985724225640297
0	4732	0.029035169631242752
0	4536	-0.03856951743364334
0	4490	-0.009103983640670776
0	4624	0.026737255975604057
0	4630	0.0012101817410439253
0	4612	-0.003650128375738859
0	4742	0.02628174051642418
0	4852	0.022183382883667946
0	4762	-0.018148086965084076
0	4828	0.013330640271306038
0	4970	0.028751535341143608
0	4930	-0.008109752088785172
0	4864	-0.013389778323471546
0	4908	0.008937397971749306
0	4986	0.01586354710161686
0	4840	-0.029693707823753357
0	4980	0.02850162796676159
0	4884	-0.019564155489206314
0	4902	0.003669674741104245
0	4916	0.0028557442128658295
0	4756	-0.032694876194000244
0	4804	0.009829082526266575
0	4878	0.015194863080978394
0	4910	0.006589966826140881
0	4776	-0.027641406282782555
0	4982	0.042645394802093506
0	5088	0.0219837948679924
0	5042	-0.009542776271700859
0	5158	0.02406705543398857
0	5114	-0.009105582721531391
0	4836	-0.05732116475701332
0	4874	0.007829669862985611
0	4964	0.018501006066799164
0	4894	-0.014343086630105972
0	4976	0.016770973801612854
0	5070	0.019180020317435265
0	4996	-0.015052275732159615
0	5452	0.09259510040283203
0	6316	0.1747337281703949
1	5494	-0.16451625525951385
0	4402	-0.2175876796245575
0	4722	0.06400341540575027
0	5324	0.12057363241910934
0	5580	0.05111685022711754
0	5584	0.0007951443549245596
0	5650	0.013068098574876785
0	5742	0.018119271844625473
0	5578	-0.032138798385858536
0	5736	0.030823253095149994
0	5578	-0.03065699152648449
0	5558	-0.003864087164402008
0	5684	0.024218659847974777
0	5612	-0.013761644251644611
0	5826	0.040712274610996246
0	5656	-0.03215474635362625
0	5810	0.02896769717335701
0	5942	0.02470121532678604
0	5864	-0.014518830925226212
0	5950	0.01592671312391758
0	5964	0.002580106258392334
0	5848	-0.02126697264611721
0	5978	0.023687181994318962
0	5730	-0.04488687962293625
0	5594	-0.02450215071439743
0	5560	-0.006099894642829895
0	5294	-0.04755661264061928
0	5364	0.012498214840888977
0	5348	-0.002850491553544998
0	5266	-0.014617797918617725
0	5400	0.024037599563598633
0	5350	-0.008974296972155571
0	5534	0.032839156687259674
0	5358	-0.03126036003232002
0	5540	0.03231954947113991
0	5572	0.00568390404805541
0	5408	-0.02913207747042179
0	5636	0.04055880755186081
0	5478	-0.02812422253191471
0	5506	0.004986998159438372
0	5516	0.0017835062462836504
0	5382	-0.023907793685793877
0	5520	0.02464725822210312
0	5352	-0.030034683644771576
0	5494	0.025425853207707405
0	5604	0.019735191017389297
0	5490	-0.020459193736314774
0	5606	0.020858056843280792
0	5432	-0.03135022148489952
0	5534	0.01842552237212658
0	5342	-0.034770432859659195
0	5398	0.010179596953094006
0	5396	-0.00036455102963373065
0	5474	0.014267944730818272
0	5564	0.016488751396536827
0	5410	-0.028219254687428474
0	5462	0.009537317790091038
0	5266	-0.03591146692633629
0	5250	-0.0029333040583878756
0	5276	0.004769475199282169
0	5182	-0.01724243350327015
0	5360	0.032694146037101746
0	5230	-0.023876283317804337
0	5424	0.035697199404239655
0	5342	-0.015082402154803276
0	5832	0.09023608267307281
0	6380	0.10075628757476807
0	5702	-0.12392012029886246
1	4602	-0.20096951723098755
0	4872	0.04959345608949661
0	4956	0.015489201061427593
0	5414	0.08474471420049667
0	5540	0.02330944873392582
0	5596	0.010358477011322975
0	5656	0.0110816964879632
0	5550	-0.01955815777182579
0	5734	0.03396128863096237
0	5646	-0.01621800847351551
0	5722	0.014003021642565727
0	5688	-0.0062533714808523655
0	5736	0.008819961920380592
0	5798	0.011365024372935295
0	5838	0.0073143974877893925
0	5838	0.0
0	5864	0.004731114953756332
0	5844	-0.0036327089183032513
0	5940	0.017391303554177284
0	5976	0.006502968724817038
0	5990	0.0025181667879223824
0	5932	-0.010386323556303978
0	5888	-0.007848546840250492
0	5860	-0.0049736518412828445
0	5814	-0.008146880194544792
0	5666	-0.02612164244055748
0	5502	-0.028904451057314873
0	5380	-0.021481897681951523
0	5314	-0.011652268469333649
0	5214	-0.017766406759619713
0	5202	-0.0021381480619311333
0	5284	0.014558796770870686
0	5296	0.0021253733430057764
0	5336	0.007070385850965977
0	5306	-0.0053052278235554695
0	5348	0.007437577471137047
0	5358	0.0017734479624778032
0	5398	0.007106310687959194
0	5450	0.009246526286005974
0	5480	0.005343529861420393
0	5524	0.00784490816295147
0	5556	0.0057121096178889275
0	5554	-0.0003572874702513218
0	5524	-0.005365126766264439
0	5588	0.011464329436421394
0	5592	0.0007175917271524668
0	5646	0.009701760485768318
0	5688	0.007555678021162748
0	5692	0.0007202621782198548
0	5696	0.0007213359349407256
0	5608	-0.01589614525437355
0	5798	0.034400347620248795
0	5640	-0.028629757463932037
0	5742	0.018510228022933006
0	5724	-0.003268844448029995
0	5662	-0.01126549020409584
0	5726	0.011629174463450909
0	5714	-0.002177515998482704
0	5916	0.036580950021743774
0	5754	-0.02923097088932991
0	5736	-0.003237371100112796
0	5662	-0.013266720809042454
0	5558	-0.018603097647428513
0	5660	0.01821688748896122
0	5562	-0.017468806356191635
0	5680	0.021001921966671944
0	5632	-0.008526360616087914
0	5708	0.013478204607963562
0	5846	0.02442881278693676
0	5996	0.026491157710552216
0	6778	0.13768897950649261
0	6272	-0.08844195306301117
1	5028	-0.21653109788894653
0	5154	0.02199874259531498
0	5536	0.06683852523565292
0	5816	0.04900645464658737
0	6094	0.04859290271997452
0	5968	-0.021966783329844475
0	6104	0.02367166057229042
0	6110	0.001041847513988614
0	6076	-0.005889689549803734
0	6174	0.016930412501096725
0	6026	-0.025513136759400368
0	6128	0.017544463276863098
0	6076	-0.008924485184252262
0	6052	-0.004110715351998806
0	6158	0.018115323036909103
0	6044	-0.019434690475463867
0	6260	0.03675469756126404
0	6130	-0.022077804431319237
0	6282	0.025759220123291016
0	6294	0.0020273695699870586
0	6240	-0.009090806357562542
0	6340	0.01677064597606659
0	6068	-0.04544340819120407
0	6212	0.02399067021906376
0	6004	-0.03455111011862755
0	5854	-0.024865450337529182
0	5780	-0.012257066555321217
0	5592	-0.031150927767157555
0	5612	0.0033213396091014147
0	5440	-0.02874908223748207
0	5504	0.010747150518000126
0	5534	0.005024340469390154
0	5544	0.0016712347278371453
0	5614	0.011698121204972267
0	5526	-0.014722776599228382
0	5706	0.0302104651927948
0	5518	-0.03159946948289871
0	5672	0.025969939306378365
0	5694	0.0037191477604210377
0	5660	-0.005760173313319683
0	5772	0.019029926508665085
0	5624	-0.02518291585147381
0	5734	0.018770689144730568
0	5674	-0.010258515365421772
0	5738	0.010966039262712002
0	5738	0.0
0	5654	-0.014452856034040451
0	5796	0.024517422541975975
0	5728	-0.011763349175453186
0	5768	0.006941793020814657
0	5816	0.008355576545000076
0	5676	-0.0244305357336998
0	5848	0.030131034553050995
0	5730	-0.020697880536317825
0	5850	0.021108180284500122
0	5842	-0.0014084837166592479
0	5900	0.010212225839495659
0	6028	0.02252146601676941
0	5898	-0.022815022617578506
0	5940	0.007358695846050978
0	5736	-0.03563816472887993
0	5660	-0.01325905229896307
0	5574	-0.01499267853796482
0	5548	-0.004531879909336567
0	5670	0.021273134276270866
0	5520	-0.026133617386221886
0	5714	0.03383602946996689
0	5632	-0.014285547658801079
0	5758	0.02195606380701065
0	6314	0.0968494862318039
0	6482	0.029153170064091682
0	5988	-0.08537358045578003
1	4460	-0.26351794600486755
0	5050	0.10250173509120941
0	5550	0.08718091249465942
0	5702	0.026531990617513657
0	5738	0.006285208743065596
0	5892	0.026873590424656868
0	5720	-0.02999790757894516
0	5910	0.033138763159513474
0	5804	-0.018472691997885704
0	5860	0.009759838692843914
0	5798	-0.010793997906148434
0	5660	-0.02403232268989086
0	5696	0.0062718503177165985
0	5442	-0.044290997087955475
0	5462	0.0034956070594489574
0	5336	-0.02207866497337818
0	5378	0.007389422971755266
0	5556	0.03141287341713905
0	5572	0.002830021781846881
0	5688	0.020537516102194786
0	5788	0.017701830714941025
0	5680	-0.019093867391347885
0	5684	0.0007066305843181908
0	5536	-0.02614317461848259
0	5262	-0.04839564487338066
0	5214	-0.008500690571963787
0	4982	-0.041188307106494904
0	5032	0.00891774334013462
0	4946	-0.015456320717930794
0	4886	-0.010883629322052002
0	5152	0.04857442155480385
0	5064	-0.01600232720375061
0	5252	0.034183889627456665
0	5334	0.014936973340809345
0	5366	0.005842116661369801
0	5520	0.028178978711366653
0	5436	-0.015405306592583656
0	5558	0.022413285449147224
0	5530	-0.005155145190656185
0	5510	-0.0036884488072246313
0	5658	0.027353376150131226
0	5498	-0.02959674410521984
0	5648	0.027774691581726074
0	5608	-0.007408779580146074
0	5570	-0.007031134329736233
0	5678	0.019969921559095383
0	5574	-0.01918984390795231
0	5736	0.02985587902367115
0	5602	-0.02466832660138607
0	5700	0.018037693575024605
0	5670	-0.005521336570382118
0	5674	0.0007367116049863398
0	5796	0.02247053012251854
0	5678	-0.021718855947256088
0	5606	-0.013240649364888668
0	5732	0.023122377693653107
0	5618	-0.020854167640209198
0	5768	0.027333689853549004
0	5698	-0.012698950245976448
0	5680	-0.0032506620045751333
0	5650	-0.005391998682171106
0	5436	-0.03834850713610649
0	5650	0.038263481110334396
0	5624	-0.0046378327533602715
0	5754	0.023149246349930763
0	5756	0.0003553239512257278
0	5666	-0.01596726104617119
0	5864	0.035080257803201675
0	5866	0.0003537068550940603
0	6646	0.13767297565937042
0	6352	-0.051547594368457794
1	5018	-0.23294799029827118
0	4906	-0.019612649455666542
0	5368	0.08125410228967667
0	5636	0.047200825065374374
0	5992	0.06267531961202621
0	5946	-0.008083601482212543
0	5978	0.005611147731542587
0	6106	0.02241288684308529
0	5906	-0.03491742163896561
0	5976	0.01220646407455206
0	5942	-0.0059183272533118725
0	5876	-0.011470681056380272
0	5950	0.01285510789602995
0	5780	-0.029485564678907394
0	5880	0.017327018082141876
0	5854	-0.004501177463680506
0	5900	0.007952790707349777
0	5988	0.015202469192445278
0	5874	-0.019661273807287216
0	5972	0.016882969066500664
0	5842	-0.02235443890094757
0	5748	-0.016126450151205063
0	5844	0.016460340470075607
0	5634	-0.03596177697181702
0	5602	-0.005483646411448717
0	5446	-0.02675631269812584
0	5258	-0.03228539228439331
0	5214	-0.007582459133118391
0	5002	-0.03667100891470909
0	5158	0.027242563664913177
0	5040	-0.020750779658555984
0	5078	0.006681592669337988
0	5164	0.015106271021068096
0	5102	-0.010903590358793736
0	5254	0.026815326884388924
0	5118	-0.02409723959863186
0	5284	0.029557351022958755
0	5242	-0.007509296759963036
0	5198	-0.007907601073384285
0	5352	0.02779448963701725
0	5258	-0.017029397189617157
0	5320	0.011278741993010044
0	5328	0.0014602448791265488
0	5306	-0.004030928481370211
0	5400	0.017273060977458954
0	5290	-0.020272761583328247
0	5432	0.026261281222105026
0	5320	-0.02077305316925049
0	5314	-0.0011174571700394154
0	5426	0.020931972190737724
0	5314	-0.02100341208279133
0	5410	0.018062541261315346
0	5394	-0.003016818780452013
0	5320	-0.013992360793054104
0	5446	0.023872075602412224
0	5348	-0.018585480749607086
0	5478	0.02466949261724949
0	5556	0.014781125821173191
0	5568	0.002269117394462228
0	5666	0.018465248867869377
0	5446	-0.04132075980305672
0	5422	-0.004496290348470211
0	5416	-0.0011216630227863789
0	5252	-0.030610721558332443
0	5392	0.026106739416718483
0	5296	-0.017886420711874962
0	5376	0.014888891950249672
0	5382	0.0011160299181938171
0	5426	0.008177121169865131
0	5656	0.04268375411629677
0	6378	0.13373836874961853
0	6136	-0.04451857507228851
1	4812	-0.24235177040100098
0	4882	0.012853628024458885
0	5106	0.041238632053136826
0	5556	0.08299520611763
0	5560	0.0007365306955762208
0	5746	0.03422179073095322
0	5624	-0.02238805964589119
0	5708	0.015385555103421211
0	5706	-0.00036569309304468334
0	5694	-0.0021889288909733295
0	5766	0.013110932894051075
0	5660	-0.01925872080028057
0	5686	0.004714129958301783
0	5690	0.0007242003339342773
0	5528	-0.02926970273256302
0	5738	0.03793078660964966
0	5612	-0.02273355983197689
0	5730	0.021284528076648712
0	5760	0.005409238860011101
0	5722	-0.0068387966603040695
0	5834	0.02012024261057377
0	5662	-0.030821794643998146
0	5716	0.009652969427406788
0	5636	-0.014273140579462051
0	5360	-0.04914296790957451
0	5396	0.006410560570657253
0	5160	-0.04202129319310188
0	5110	-0.008916893973946571
0	5048	-0.011092954315245152
0	4936	-0.020199107006192207
0	5032	0.017439326271414757
0	4894	-0.02503567934036255
0	5088	0.03519253060221672
0	4978	-0.01995670050382614
0	5094	0.021119069308042526
0	5228	0.024465352296829224
0	5162	-0.01208820752799511
0	5268	0.019469307735562325
0	5176	-0.016943534836173058
0	5336	0.02956320345401764
0	5262	-0.013703195378184319
0	5306	0.008173273876309395
0	5408	0.018988754600286484
0	5270	-0.02573506534099579
0	5394	0.023184791207313538
0	5312	-0.015344694256782532
0	5358	0.008630934171378613
0	5406	0.009020521305501461
0	5300	-0.019960831850767136
0	5478	0.03361619636416435
0	5418	-0.011348734609782696
0	5438	0.003792859148234129
0	5442	0.0007596475188620389
0	5358	-0.015980316326022148
0	5518	0.030492452904582024
0	5304	-0.04074276238679886
0	5442	0.026288719847798347
0	5400	-0.007986613549292088
0	5542	0.02695281244814396
0	5642	0.018921716138720512
0	5442	-0.037675660103559494
0	5672	0.04321575164794922
0	5516	-0.029169417917728424
0	5404	-0.020886428654193878
0	5548	0.026783058419823647
0	5380	-0.03115919791162014
0	5480	0.018529728055000305
0	5274	-0.038096409291028976
0	5314	0.007397088222205639
0	5234	-0.01478160172700882
0	5512	0.05139835551381111
0	6308	0.14694298803806305
0	5714	-0.10898149013519287
1	4232	-0.2713954448699951
0	4920	0.12679533660411835
0	5208	0.05323212593793869
0	5488	0.0517866425216198
0	5790	0.05581086128950119
0	5662	-0.023599110543727875
0	5848	0.03421633690595627
0	5782	-0.01211379561573267
0	5832	0.0091567263007164
0	5976	0.026308096945285797
0	5774	-0.03678479045629501
0	5904	0.02361375279724598
0	5910	0.0010873242281377316
0	5798	-0.02022268995642662
0	5938	0.025224315002560616
0	5830	-0.019396087154746056
0	5916	0.01541844941675663
0	5960	0.007875612936913967
0	5904	-0.009992624633014202
0	5970	0.011760792694985867
0	5840	-0.0231028962880373
0	5948	0.019143732264637947
0	5784	-0.029001567512750626
0	5670	-0.020111732184886932
0	5698	0.004934210795909166
0	5378	-0.056250881403684616
0	5410	0.005622979253530502
0	5238	-0.030192390084266663
0	5182	-0.00984586589038372
0	5202	0.0035397394094616175
0	5096	-0.018817458301782608
0	5204	0.019074980169534683
0	5176	-0.004937110468745232
0	5204	0.004938039463013411
0	5322	0.020845111459493637
0	5214	-0.01913129724562168
0	5416	0.035877518355846405
0	5324	-0.016382155939936638
0	5386	0.011070242151618004
0	5382	-0.0007161101093515754
0	5330	-0.009342548437416553
0	5494	0.029543517157435417
0	5360	-0.02419879101216793
0	5484	0.022467296570539474
0	5348	-0.024688370525836945
0	5430	0.014938969165086746
0	5448	0.0032872711308300495
0	5408	-0.007325917482376099
0	5484	0.01396630983799696
0	5420	-0.011791439726948738
0	5502	0.015158983878791332
0	5564	0.011485593393445015
0	5406	-0.02933930791914463
0	5490	0.015634695068001747
0	5452	-0.007080745417624712
0	5526	0.01380992028862238
0	5508	-0.0033560802694410086
0	5512	0.0007453416474163532
0	5714	0.03757580369710922
0	5546	-0.031148413196206093
0	5658	0.02072155475616455
0	5484	-0.03208122402429581
0	5384	-0.018405809998512268
0	5348	-0.0066176471300423145
0	5182	-0.030487805604934692
0	5358	0.03235214948654175
0	5352	-0.0011019419180229306
0	5358	0.0011023738188669086
0	5490	0.024247175082564354
0	5382	-0.019825972616672516
0	5738	0.06535227596759796
0	6236	0.0911920890212059
0	5964	-0.049583159387111664
1	4872	-0.19833390414714813
0	4824	-0.00875039491802454
0	4996	0.03145574405789375
0	5502	0.09278388321399689
0	5636	0.024563118815422058
0	5752	0.021234015002846718
0	5662	-0.016447769477963448
0	5708	0.008394262753427029
0	5766	0.010570825077593327
0	5634	-0.024028252810239792
0	5680	0.00836191326379776
0	5762	0.014888877980411053
0	5594	-0.030446918681263924
0	5716	0.022101180627942085
0	5628	-0.015921838581562042
0	5662	0.00614731851965189
0	5708	0.008319567888975143
0	5710	0.00036136741982772946
0	5844	0.024204036220908165
0	5848	0.0007209458854049444
0	5884	0.006470475345849991
0	5874	-0.0017916009528562427
0	5760	-0.020340193063020706
0	5886	0.022427642717957497
0	5662	-0.03974543884396553
0	5564	-0.017357422038912773
0	5462	-0.01805799826979637
0	5234	-0.04034588858485222
0	5238	0.0007099331123754382
0	4998	-0.04284897819161415
0	5200	0.03627308830618858
0	5134	-0.011828381568193436
0	5174	0.007155464496463537
0	5282	0.01929926872253418
0	5206	-0.013598787598311901
0	5380	0.031214121729135513
0	5246	-0.0240920539945364
0	5414	0.030280454084277153
0	5342	-0.013000300154089928
0	5400	0.010499257594347
0	5526	0.022840984165668488
0	5478	-0.008709431625902653
0	5582	0.01890290528535843
0	5408	-0.0316283144056797
0	5554	0.02658831886947155
0	5562	0.0014575489331036806
0	5450	-0.020418083295226097
0	5532	0.014972428791224957
0	5426	-0.019375594332814217
0	5480	0.009895788505673409
0	5442	-0.006979392375797033
0	5348	-0.017311658710241318
0	5412	0.011824844405055046
0	5298	-0.021108243614435196
0	5374	0.014123419299721718
0	5436	0.011542328633368015
0	5308	-0.023848265409469604
0	5352	0.008205689489841461
0	5320	-0.005963399540632963
0	5580	0.04842795431613922
0	5534	-0.0085371732711792
0	5372	-0.030003704130649567
0	5432	0.011096179485321045
0	5358	-0.013663556426763535
0	5266	-0.01697918213903904
0	5386	0.02213858813047409
0	5264	-0.022506732493638992
0	5446	0.03357190266251564
0	5366	-0.01475397776812315
0	5436	0.012907825410366058
0	5540	0.019173098728060722
0	5666	0.023226948454976082
0	6386	0.1325722634792328
0	5890	-0.09087911248207092
1	4406	-0.2711063325405121
0	4586	0.03311501815915108
0	4996	0.07588282972574234
0	5306	0.05753597617149353
0	5568	0.048695266246795654
0	5516	-0.009656214155256748
0	5488	-0.005198341328650713
0	5574	0.015961790457367897
0	5452	-0.02261185459792614
0	5558	0.019641511142253876
0	5446	-0.020720021799206734
0	5514	0.012574429623782635
0	5554	0.00739316875115037
0	5406	-0.02731332741677761
0	5542	0.025090400129556656
0	5392	-0.02763550728559494
0	5490	0.01807606779038906
0	5528	0.007010983768850565
0	5420	-0.01990685611963272
0	5508	0.01622159592807293
0	5370	-0.02541498839855194
0	5418	0.008834355510771275
0	5342	-0.01398498471826315
0	5152	-0.034945741295814514
0	5156	0.0007370282546617091
0	4878	-0.05128961801528931
0	4792	-0.015921209007501602
0	4690	-0.01897086203098297
0	4516	-0.03255906701087952
0	4588	0.013631717301905155
0	4466	-0.023289553821086884
0	4594	0.02442561648786068
0	4648	0.010304032824933529
0	4644	-0.0007649548351764679
0	4778	0.025734588503837585
0	4704	-0.014283875934779644
0	4858	0.029882023110985756
0	4832	-0.00506565859541297
0	4794	-0.0074395048432052135
0	4934	0.02752690576016903
0	4822	-0.022111954167485237
0	4946	0.024582037702202797
0	4900	-0.009153500199317932
0	4950	0.009992805309593678
0	5036	0.017239997163414955
0	4926	-0.0221259705722332
0	5036	0.022195318713784218
0	5068	0.006476596463471651
0	4924	-0.029235413298010826
0	5096	0.03503768518567085
0	4972	-0.025330591946840286
0	5050	0.015977058559656143
0	5066	0.0032856008037924767
0	5022	-0.009052504785358906
0	5152	0.02676990069448948
0	5008	-0.029653627425432205
0	5188	0.037033990025520325
0	5144	-0.009028233587741852
0	5128	-0.003272831439971924
0	5322	0.03951817750930786
0	5162	-0.032430678606033325
0	5290	0.025823112577199936
0	5216	-0.014859437942504883
0	5076	-0.028005976229906082
0	5128	0.010372339747846127
0	4912	-0.04298507422208786
0	5072	0.03179692476987839
0	5090	0.0035720898304134607
0	5106	0.0031697815284132957
0	5254	0.029260190203785896
0	5132	-0.024069128558039665
0	5310	0.0350458063185215
0	5670	0.07071024179458618
0	6390	0.14071111381053925
0	5816	-0.11113549023866653
1	4408	-0.27124565839767456
0	4820	0.07963506877422333
0	5194	0.0723908320069313
0	5412	0.042161449790000916
0	5752	0.06555017083883286
0	5724	-0.005375586915761232
0	5732	0.0015285261906683445
0	5796	0.01217532530426979
0	5714	-0.015527754090726376
0	5822	0.02036224864423275
0	5788	-0.006383458152413368
0	5846	0.010836530476808548
0	5910	0.011908749118447304
0	5760	-0.027779148891568184
0	5950	0.035050179809331894
0	5870	-0.014701197855174541
0	5946	0.013905830681324005
0	6038	0.016766291111707687
0	5968	-0.012693576514720917
0	6038	0.012625503353774548
0	6006	-0.00574025372043252
0	6058	0.009267290122807026
0	6038	-0.003543586004525423
0	5894	-0.025371765717864037
0	5898	0.0007015246665105224
0	5608	-0.05066977068781853
0	5506	-0.017772510647773743
0	5478	-0.004873181227594614
0	5278	-0.03484725207090378
0	5378	0.017536886036396027
0	5360	-0.0031647426076233387
0	5374	0.002447809325531125
0	5518	0.025096435099840164
0	5454	-0.011133017018437386
0	5574	0.02086932212114334
0	5562	-0.0020890880841761827
0	5628	0.011500795371830463
0	5678	0.008717990480363369
0	5624	-0.009421891532838345
0	5722	0.017107943072915077
0	5572	-0.026200873777270317
0	5752	0.031480640172958374
0	5760	0.0013999067014083266
0	5748	-0.0021016988903284073
0	5790	0.007356461603194475
0	5702	-0.015427950769662857
0	5854	0.026674466207623482
0	5740	-0.0200166217982769
0	5740	0.0
0	5804	0.011272103525698185
0	5736	-0.011993086896836758
0	5848	0.019784724339842796
0	5800	-0.008489665575325489
0	5910	0.019482819363474846
0	5896	-0.0024793974589556456
0	5742	-0.027273692190647125
0	5982	0.04247086122632027
0	5996	0.002470530103892088
0	5918	-0.01372256875038147
0	5904	-0.002453815657645464
0	5752	-0.02655980736017227
0	5862	0.01917712762951851
0	5724	-0.02399054355919361
0	5796	0.012501881457865238
0	5866	0.012130594812333584
0	5720	-0.025258351117372513
0	5898	0.03076639585196972
0	5794	-0.017947951331734657
0	5958	0.02828366495668888
0	6890	0.16042597591876984
0	6330	-0.09575159102678299
1	5112	-0.20736385881900787
0	5038	-0.012644384987652302
0	5248	0.036030881106853485
0	5616	0.06332090497016907
0	5914	0.05132739245891571
0	5798	-0.019955502822995186
0	6002	0.03510542958974838
0	5780	-0.03814564272761345
0	5826	0.007902241311967373
0	5988	0.027826126664876938
0	5850	-0.023669587448239326
0	6024	0.029843918979167938
0	5968	-0.00959265511482954
0	5992	0.004109776578843594
0	6072	0.013691753149032593
0	5912	-0.02733205072581768
0	6096	0.03144438937306404
0	6142	0.007856622338294983
0	6076	-0.01125818770378828
0	6202	0.0214719045907259
0	6040	-0.02753634750843048
0	6124	0.014263720251619816
0	6158	0.005760368891060352
0	5904	-0.04294554516673088
0	5900	-0.0006761630065739155
0	5636	-0.044581539928913116
0	5594	-0.007102993316948414
0	5470	-0.020994411781430244
0	5440	-0.0050933207385241985
0	5436	-0.0006847282638773322
0	5268	-0.028906045481562614
0	5422	0.026473520323634148
0	5352	-0.012006998993456364
0	5290	-0.010628449730575085
0	5468	0.03057088702917099
0	5344	-0.02135108783841133
0	5466	0.021061597391963005
0	5462	-0.000692680710926652
0	5408	-0.009368385188281536
0	5534	0.021912535652518272
0	5408	-0.02197035774588585
0	5654	0.04300498962402344
0	5508	-0.025578435510396957
0	5606	0.01721533201634884
0	5660	0.009507488459348679
0	5570	-0.015884222462773323
0	5692	0.021575354039669037
0	5606	-0.015245163813233376
0	5602	-0.0007113303290680051
0	5662	0.01070001907646656
0	5558	-0.01860642619431019
0	5668	0.019736606627702713
0	5624	-0.007916231639683247
0	5604	-0.003609847743064165
0	5786	0.03290901333093643
0	5570	-0.039083704352378845
0	5642	0.01303309015929699
0	5726	0.015200868248939514
0	5866	0.025295719504356384
0	5838	-0.00504619674757123
0	5602	-0.042429763823747635
0	5614	0.00215313583612442
0	5418	-0.03512754663825035
0	5422	0.0007166061550378799
0	5538	0.020765209570527077
0	5416	-0.021830154582858086
0	5506	0.0160972997546196
0	5470	-0.006437384523451328
0	5558	0.01573507860302925
0	5996	0.07824782282114029
0	6442	0.07945840060710907
0	6100	-0.060558125376701355
1	4726	-0.2426561415195465
0	4702	-0.004258137661963701
0	5218	0.09204205125570297
0	5520	0.054011519998311996
0	5792	0.04866063967347145
0	5836	0.007866882719099522
0	5694	-0.025353822857141495
0	5878	0.03283486142754555
0	5796	-0.014614150859415531
0	5788	-0.001423757872544229
0	5852	0.011381960473954678
0	5696	-0.027706079185009003
0	5850	0.027335982769727707
0	5790	-0.010646351613104343
0	5756	-0.006025092676281929
0	5862	0.018771471455693245
0	5748	-0.020171992480754852
0	5926	0.03151855617761612
0	5808	-0.020883478224277496
0	5898	0.0159087423235178
0	5958	0.01058811042457819
0	5812	-0.02568282186985016
0	5860	0.008424402214586735
0	5674	-0.03258318081498146
0	5590	-0.014692848548293114
0	5540	-0.008741462603211403
0	5242	-0.052077870815992355
0	5274	0.005602567922323942
0	5090	-0.03235108032822609
0	5158	0.012051324360072613
0	5138	-0.0035643423907458782
0	5126	-0.002133383881300688
0	5302	0.031211208552122116
0	5194	-0.01914282701909542
0	5322	0.02273157797753811
0	5308	-0.0024932031519711018
0	5316	0.0014291669940575957
0	5430	0.020411573350429535
0	5340	-0.01615760289132595
0	5484	0.025922903791069984
0	5406	-0.014067234471440315
0	5468	0.01121170911937952
0	5486	0.003259491641074419
0	5416	-0.012703713029623032
0	5568	0.027647757902741432
0	5490	-0.014203855767846107
0	5498	0.0014601026196032763
0	5582	0.015354431234300137
0	5458	-0.0227136742323637
0	5568	0.020192377269268036
0	5478	-0.016554463654756546
0	5532	0.009961996227502823
0	5642	0.020327957347035408
0	5502	-0.02590673603117466
0	5636	0.02482278272509575
0	5572	-0.011852291412651539
0	5630	0.010739017277956009
0	5660	0.005541394464671612
0	5536	-0.022850124165415764
0	5738	0.03712189197540283
0	5522	-0.039554160088300705
0	5722	0.03653857856988907
0	5786	0.01165006123483181
0	5820	0.006170972250401974
0	5790	-0.00542443199083209
0	5588	-0.036421772092580795
0	5692	0.018720299005508423
0	5442	-0.04489942640066147
0	5426	-0.00287335691973567
0	5512	0.015436346642673016
0	5434	-0.013998061418533325
0	5568	0.02404392510652542
0	5532	-0.006455700378865004
0	5554	0.003944065887480974
0	6124	0.10210295766592026
0	6352	0.040706049650907516
0	5792	-0.09946949779987335
1	4476	-0.23334713280200958
0	4980	0.08995502442121506
0	5272	0.052265431731939316
0	5700	0.07674376666545868
0	5670	-0.005372107960283756
0	5804	0.023975666612386703
0	5676	-0.02288002334535122
0	5718	0.007499732077121735
0	5786	0.01213650032877922
0	5610	-0.03137217462062836
0	5768	0.028167005628347397
0	5656	-0.01995367929339409
0	5756	0.017803097143769264
0	5740	-0.0028481914196163416
0	5670	-0.012444739229977131
0	5810	0.024897150695323944
0	5682	-0.022759871557354927
0	5808	0.022422587499022484
0	5814	0.0010676283854991198
0	5802	-0.0021323980763554573
0	5914	0.01988942362368107
0	5754	-0.028334297239780426
0	5792	0.006716391537338495
0	5656	-0.023998023942112923
0	5562	-0.016565239056944847
0	5470	-0.01621335744857788
0	5220	-0.04407409206032753
0	5228	0.0014131446368992329
0	5028	-0.03551599010825157
0	5064	0.00644337572157383
0	5136	0.012942967005074024
0	4984	-0.027216406539082527
0	5154	0.030438674613833427
0	5136	-0.0032251898664981127
0	5134	-0.000359565659891814
0	5200	0.01190390344709158
0	5100	-0.018101951107382774
0	5270	0.0308806411921978
0	5282	0.002185739343985915
0	5160	-0.022289888933300972
0	5290	0.02381679229438305
0	5202	-0.016169337555766106
0	5198	-0.0007370192324742675
0	5268	0.012942192144691944
0	5152	-0.021509630605578423
0	5314	0.03013579733669758
0	5262	-0.009703061543405056
0	5326	0.011973508633673191
0	5386	0.011259006336331367
0	5218	-0.03160984441637993
0	5388	0.03210373967885971
0	5236	-0.028799880295991898
0	5348	0.021290617063641548
0	5368	0.0038126222789287567
0	5386	0.0034376513212919235
0	5408	0.004206286743283272
0	5320	-0.01683179661631584
0	5472	0.029054580256342888
0	5330	-0.02710096165537834
0	5420	0.017143728211522102
0	5444	0.004561350215226412
0	5234	-0.03983408585190773
0	5542	0.058331120759248734
0	5716	0.03287277743220329
0	5622	-0.017694227397441864
0	5658	0.006755826994776726
0	5380	-0.05202095955610275
0	5292	-0.016438355669379234
0	5136	-0.02913673035800457
0	5086	-0.009347192011773586
0	5036	-0.009351504035294056
0	4930	-0.019856633618474007
0	5088	0.02964797616004944
0	5016	-0.01351977325975895
0	5132	0.02181626670062542
0	5232	0.01880948431789875
0	5506	0.051564499735832214
0	6306	0.15032319724559784
0	5866	-0.08217336237430573
1	4594	-0.23684799671173096
0	4720	0.023552576079964638
0	5164	0.08334167301654816
0	5506	0.06422454863786697
0	5680	0.032643359154462814
0	5716	0.006740647368133068
0	5716	0.0
0	5782	0.012308839708566666
0	5696	-0.01599285937845707
0	5814	0.021913262084126472
0	5706	-0.019996296614408493
0	5576	-0.024027206003665924
0	5718	0.02622377686202526
0	5684	-0.006260280031710863
0	5726	0.007726553827524185
0	5710	-0.00294326851144433
0	5662	-0.008825043216347694
0	5868	0.03787321597337723
0	5806	-0.01136474683880806
0	5824	0.0032891130540519953
0	5910	0.01564907282590866
0	5748	-0.029331885278224945
0	5930	0.032812103629112244
0	5726	-0.03655870258808136
0	5706	-0.00357057829387486
0	5542	-0.02915901131927967
0	5360	-0.032280951738357544
0	5320	-0.007089349441230297
0	5216	-0.018452584743499756
0	5292	0.013572074472904205
0	5284	-0.0014335375744849443
0	5256	-0.004996787756681442
0	5360	0.01850050874054432
0	5226	-0.02380952425301075
0	5370	0.02562885731458664
0	5370	0.0
0	5386	0.0028587765991687775
0	5428	0.007519066333770752
0	5368	-0.01076426263898611
0	5484	0.020851807668805122
0	5412	-0.012968143448233604
0	5466	0.00974330585449934
0	5502	0.00649983761832118
0	5440	-0.011208735406398773
0	5520	0.014484182000160217
0	5434	-0.015589877963066101
0	5638	0.037042416632175446
0	5510	-0.0232456773519516
0	5540	0.005460038315504789
0	5598	0.010573136620223522
0	5500	-0.01788952201604843
0	5638	0.025254374369978905
0	5590	-0.008790028281509876
0	5524	-0.012111425399780273
0	5596	0.013228809460997581
0	5478	-0.02169516496360302
0	5566	0.01618579402565956
0	5472	-0.017267560586333275
0	5524	0.009543386287987232
0	5588	0.011723615229129791
0	5438	-0.02742765285074711
0	5544	0.01936403103172779
0	5646	0.018600692972540855
0	5654	0.001456346013583243
0	5742	0.015978308394551277
0	5496	-0.04456629231572151
0	5656	0.028964167460799217
0	5444	-0.038315098732709885
0	5450	0.0010842850897461176
0	5434	-0.002889999421313405
0	5304	-0.02348831668496132
0	5456	0.027481134980916977
0	5430	-0.004701003897935152
0	5438	0.001447090646252036
0	5536	0.017727075144648552
0	5554	0.003255679504945874
0	6408	0.15435223281383514
0	6154	-0.04569605365395546
1	5278	-0.1569911241531372
0	4740	-0.09656806290149689
0	5182	0.07974596321582794
0	5322	0.02530730329453945
0	5714	0.07099562883377075
0	5634	-0.014478065073490143
0	5646	0.0021702698431909084
0	5752	0.01916494034230709
0	5600	-0.02743649110198021
0	5706	0.019129429012537003
0	5698	-0.0014417011989280581
0	5666	-0.0057607837952673435
0	5786	0.02159283123910427
0	5710	-0.013646974228322506
0	5788	0.013992203399538994
0	5814	0.004660110920667648
0	5754	-0.010743831284344196
0	5888	0.023992838338017464
0	5788	-0.017863309010863304
0	5906	0.021062150597572327
0	5914	0.0014240280725061893
0	5886	-0.004970414098352194
0	5902	0.002832660684362054
0	5700	-0.035636577755212784
0	5688	-0.0021139909513294697
0	5516	-0.030254701152443886
0	5362	-0.027076130732893944
0	5346	-0.0028159760404378176
0	5118	-0.04017668589949608
0	5118	0.0
0	5140	0.0039303964003920555
0	5078	-0.01108568161725998
0	5280	0.03604524955153465
0	5168	-0.019973842427134514
0	5284	0.02070615068078041
0	5382	0.017537998035550117
0	5212	-0.030468860641121864
0	5396	0.03306379169225693
0	5218	-0.032053977251052856
0	5392	0.031405676156282425
0	5400	0.0014466721331700683
0	5380	-0.0036231884732842445
0	5512	0.02395441383123398
0	5482	-0.005453223362565041
0	5462	-0.0036405115388333797
0	5614	0.02772272378206253
0	5434	-0.03286950662732124
0	5552	0.021589841693639755
0	5516	-0.00660025654360652
0	5486	-0.0055093723349273205
0	5600	0.02098957821726799
0	5486	-0.021030107513070107
0	5630	0.026629844680428505
0	5566	-0.01185536477714777
0	5654	0.01631462574005127
0	5794	0.025960540398955345
0	5686	-0.019992347806692123
0	5780	0.01736602932214737
0	5706	-0.013634688220918179
0	5714	0.0014687164220958948
0	5782	0.012438721023499966
0	5656	-0.02295834571123123
0	5876	0.03994577005505562
0	5740	-0.02460499294102192
0	5908	0.030289918184280396
0	5896	-0.00215548207052052
0	5774	-0.0218468327075243
0	5794	0.003569473745301366
0	5588	-0.0366787351667881
0	5664	0.013502310030162334
0	5532	-0.02341366559267044
0	5442	-0.01595141366124153
0	5560	0.020906416699290276
0	5422	-0.024442950263619423
0	5526	0.018427301198244095
0	5472	-0.009564406238496304
0	5436	-0.006381620652973652
0	5760	0.05743391066789627
0	6388	0.11118586361408234
0	6028	-0.06341079622507095
1	4840	-0.20859181880950928
0	4564	-0.048677247017621994
0	4942	0.06702999025583267
0	5412	0.08368448913097382
0	5558	0.026019388809800148
0	5714	0.02781740389764309
0	5540	-0.031041864305734634
0	5666	0.022498125210404396
0	5702	0.0064324005506932735
0	5612	-0.01608138345181942
0	5698	0.015375996939837933
0	5580	-0.021107863634824753
0	5694	0.020401589572429657
0	5630	-0.011465972289443016
0	5688	0.010397867299616337
0	5798	0.019746053963899612
0	5654	-0.02586454525589943
0	5756	0.01833389140665531
0	5770	0.0025169895961880684
0	5798	0.005028494633734226
0	5876	0.013996722176671028
0	5714	-0.02901042066514492
0	5820	0.018951358273625374
0	5630	-0.033916864544153214
0	5656	0.004635517485439777
0	5494	-0.02886054292321205
0	5214	-0.049875907599925995
0	5222	0.0014269067905843258
0	4940	-0.05045986548066139
0	5056	0.020937368273735046
0	5000	-0.010167153552174568
0	4964	-0.006529704201966524
0	5102	0.024970144033432007
0	5030	-0.013015341944992542
0	5038	0.001449485425837338
0	5260	0.040349941700696945
0	5088	-0.031348343938589096
0	5250	0.02960706688463688
0	5206	-0.008061856962740421
0	5312	0.019480759277939796
0	5292	-0.0036823824048042297
0	5252	-0.007383161224424839
0	5386	0.024783607572317123
0	5290	-0.017789198085665703
0	5386	0.017826635390520096
0	5380	-0.001116251340135932
0	5270	-0.02051779441535473
0	5424	0.028793659061193466
0	5320	-0.019485386088490486
0	5410	0.016909876838326454
0	5440	0.005650355946272612
0	5326	-0.021530287340283394
0	5508	0.03445708006620407
0	5430	-0.014796454459428787
0	5442	0.0022792599629610777
0	5544	0.019399994984269142
0	5374	-0.03232308104634285
0	5526	0.028871357440948486
0	5506	-0.0037915650755167007
0	5514	0.001511220820248127
0	5582	0.012808438390493393
0	5446	-0.025523610413074493
0	5576	0.024324223399162292
0	5458	-0.02201383002102375
0	5562	0.01935051754117012
0	5604	0.0077893175184726715
0	5466	-0.025539159774780273
0	5780	0.0579756498336792
0	5656	-0.022820405662059784
0	5644	-0.0022023466881364584
0	5618	-0.004762079566717148
0	5472	-0.02668778970837593
0	5476	0.0007301935111172497
0	5302	-0.0317460335791111
0	5376	0.01350020058453083
0	5336	-0.007297849282622337
0	5360	0.0043798815459012985
0	5484	0.022617006674408913
0	5358	-0.02297341637313366
0	5538	0.032811589539051056
0	5608	0.012750145979225636
0	6294	0.12482410669326782
0	6156	-0.024963820353150368
1	5210	-0.1704627275466919
0	4508	-0.1266629844903946
0	5038	0.09616896510124207
0	5290	0.045865993946790695
0	5656	0.06664886325597763
0	5690	0.006186542566865683
0	5678	-0.002181051531806588
0	5770	0.016704797744750977
0	5636	-0.024303246289491653
0	5770	0.024275362491607666
0	5688	-0.014837689697742462
0	5672	-0.0028911482077091932
0	5794	0.022030409425497055
0	5652	-0.025612659752368927
0	5736	0.015134225599467754
0	5730	-0.0010813018307089806
0	5724	-0.0010808213846758008
0	5830	0.019085343927145004
0	5742	-0.015824301168322563
0	5916	0.031238403171300888
0	5824	-0.01647348143160343
0	5862	0.0067831301130354404
0	5888	0.004627706948667765
0	5740	-0.026256341487169266
0	5740	0.0
0	5480	-0.0459531769156456
0	5430	-0.008830801583826542
0	5266	-0.028983458876609802
0	5048	-0.03860456869006157
0	5144	0.017126139253377914
0	4994	-0.026921603828668594
0	5134	0.02515934221446514
0	5180	0.008235757239162922
0	5064	-0.020750846713781357
0	5240	0.03152652829885483
0	5176	-0.01149273943156004
0	5236	0.010807694867253304
0	5308	0.013003744184970856
0	5242	-0.011953345499932766
0	5368	0.022874431684613228
0	5304	-0.01164709310978651
0	5366	0.011309466324746609
0	5462	0.01754407398402691
0	5346	-0.02124204859137535
0	5520	0.03192270174622536
0	5432	-0.016166167333722115
0	5454	0.004048930946737528
0	5560	0.019540851935744286
0	5430	-0.024005023762583733
0	5546	0.021461080759763718
0	5390	-0.028927460312843323
0	5512	0.022683605551719666
0	5480	-0.005962733179330826
0	5446	-0.006351499352604151
0	5564	0.022083869203925133
0	5440	-0.02323228493332863
0	5558	0.02211366593837738
0	5484	-0.013856812380254269
0	5558	0.013837982900440693
0	5608	0.00932035967707634
0	5514	-0.017471902072429657
0	5596	0.015192500315606594
0	5566	-0.005542417988181114
0	5540	-0.004792037885636091
0	5610	0.012864021584391594
0	5514	-0.017602190375328064
0	5714	0.03659563139081001
0	5550	-0.02992118149995804
0	5630	0.01457425020635128
0	5830	0.03634997457265854
0	5708	-0.022111596539616585
0	5792	0.015187310986220837
0	5620	-0.03101819008588791
0	5538	-0.014773710630834103
0	5578	0.007198387756943703
0	5338	-0.04317530244588852
0	5470	0.023759810253977776
0	5468	-0.00035996257793158293
0	5474	0.0010804840130731463
0	5576	0.018363378942012787
0	5442	-0.024120096117258072
0	5596	0.02771146595478058
0	5960	0.06546683609485626
0	6592	0.11334154009819031
0	6020	-0.10188329964876175
1	4726	-0.22986191511154175
0	4930	0.03639174625277519
0	5302	0.06661016494035721
0	5480	0.03190726786851883
0	5782	0.054160039871931076
0	5720	-0.011107395403087139
0	5802	0.014672376215457916
0	5842	0.007148473523557186
0	5708	-0.023908080533146858
0	5842	0.02388421632349491
0	5660	-0.032395102083683014
0	5758	0.01742841862142086
0	5810	0.009245321154594421
0	5700	-0.019527319818735123
0	5832	0.023423081263899803
0	5724	-0.019164113327860832
0	5822	0.017388012260198593
0	5854	0.005676710978150368
0	5808	-0.008148997090756893
0	5946	0.024408074095845222
0	5792	-0.02717902883887291
0	5904	0.019713914021849632
0	5874	-0.0052671004086732864
0	5690	-0.03222830593585968
0	5686	-0.000699732918292284
0	5436	-0.04370527341961861
0	5366	-0.012237905524671078
0	5276	-0.01575556769967079
0	5092	-0.03234046325087547
0	5162	0.012412521056830883
0	5028	-0.023882228881120682
0	5152	0.022060394287109375
0	5244	0.01634586788713932
0	5152	-0.0163514856249094
0	5318	0.029561210423707962
0	5216	-0.018214285373687744
0	5334	0.021134832873940468
0	5324	-0.0017961059929803014
0	5334	0.0018016935791820288
0	5432	0.01769634522497654
0	5300	-0.023894861340522766
0	5480	0.032654836773872375
0	5422	-0.010539833456277847
0	5420	-0.0003642987285275012
0	5494	0.013502007350325584
0	5378	-0.021208908408880234
0	5504	0.023085942491889
0	5386	-0.021662240847945213
0	5468	0.015096656046807766
0	5524	0.010331467725336552
0	5418	-0.019606877118349075
0	5504	0.015944233164191246
0	5434	-0.013010023161768913
0	5470	0.006709158420562744
0	5520	0.009331027045845985
0	5402	-0.022043989971280098
0	5522	0.022422363981604576
0	5418	-0.01941385120153427
0	5518	0.018650684505701065
0	5504	-0.002604199107736349
0	5458	-0.008538546971976757
0	5562	0.019253317266702652
0	5426	-0.025113873183727264
0	5446	0.003689083969220519
0	5618	0.031668875366449356
0	5590	-0.00514592370018363
0	5698	0.019803190603852272
0	5590	-0.019759230315685272
0	5532	-0.010594252496957779
0	5522	-0.0018243958475068212
0	5344	-0.03245648369193077
0	5414	0.012760371901094913
0	5356	-0.010577121749520302
0	5324	-0.005837995558977127
0	5432	0.01971474476158619
0	5320	-0.02045263536274433
0	5506	0.03397798165678978
0	5410	-0.01753680780529976
0	6042	0.11543378978967667
0	6490	0.0815415233373642
0	5704	-0.1422281116247177
1	4612	-0.1972590833902359
0	5006	0.07155656814575195
0	5126	0.021850494667887688
0	5544	0.07627180963754654
0	5648	0.018973946571350098
0	5680	0.005829416681081057
0	5764	0.015287552028894424
0	5630	-0.024336202070116997
0	5742	0.020326925441622734
0	5702	-0.0072491783648729324
0	5722	0.003619254333898425
0	5772	0.009039411321282387
0	5602	-0.030670050531625748
0	5746	0.02595498599112034
0	5644	-0.018370654433965683
0	5706	0.01116285752505064
0	5796	0.016203369945287704
0	5714	-0.014744842424988747
0	5890	0.031612981110811234
0	5754	-0.02437450736761093
0	5872	0.021096795797348022
0	5826	-0.008201788179576397
0	5698	-0.022758791223168373
0	5744	0.008160851895809174
0	5516	-0.04037494212388992
0	5424	-0.01627281680703163
0	5332	-0.01628068834543228
0	5104	-0.040366366505622864
0	5162	0.010325796902179718
0	4992	-0.030505675822496414
0	5080	0.015858713537454605
0	5088	0.0014376594917848706
0	5076	-0.002155430382117629
0	5274	0.0355752557516098
0	5136	-0.02483503334224224
0	5244	0.019495991989970207
0	5274	0.005429798737168312
0	5318	0.007987316697835922
0	5400	0.014913610182702541
0	5294	-0.019318625330924988
0	5458	0.029963457956910133
0	5470	0.0021959790028631687
0	5434	-0.006600094959139824
0	5570	0.024959318339824677
0	5448	-0.022414110600948334
0	5548	0.01839429885149002
0	5492	-0.010310796089470387
0	5520	0.005165034905076027
0	5536	0.002954973606392741
0	5422	-0.02110017091035843
0	5598	0.032642561942338943
0	5436	-0.030096977949142456
0	5520	0.01564362272620201
0	5556	0.0067118266597390175
0	5482	-0.013812670484185219
0	5566	0.015682565048336983
0	5482	-0.0156687181442976
0	5578	0.01789042167365551
0	5530	-0.008918949402868748
0	5494	-0.006673999596387148
0	5600	0.01959044858813286
0	5502	-0.018054088577628136
0	5608	0.01947837322950363
0	5568	-0.007326454855501652
0	5616	0.008775992318987846
0	5810	0.035366177558898926
0	5626	-0.03342820703983307
0	5674	0.008701852522790432
0	5630	-0.007959575392305851
0	5460	-0.030710311606526375
0	5536	0.013715606182813644
0	5354	-0.03282986208796501
0	5464	0.019856072962284088
0	5336	-0.02310107834637165
0	5440	0.018796086311340332
0	5396	-0.007952573709189892
0	5470	0.013387042097747326
0	5506	0.0065134791657328606
0	5782	0.049940891563892365
0	6504	0.13044892251491547
0	5838	-0.11955195665359497
1	4642	-0.21438303589820862
0	5058	0.07492345571517944
0	5508	0.0812724307179451
0	5754	0.044441767036914825
0	5648	-0.01911839097738266
0	5816	0.03028591349720955
0	5794	-0.003958068322390318
0	5730	-0.01149948500096798
0	5834	0.01866430602967739
0	5700	-0.023999426513910294
0	5788	0.015751414000988007
0	5830	0.007504913490265608
0	5700	-0.023198818787932396
0	5838	0.024607118219137192
0	5778	-0.010684648528695107
0	5878	0.017811130732297897
0	5930	0.00924795214086771
0	5852	-0.013850907795131207
0	5998	0.02589203417301178
0	5854	-0.025456387549638748
0	5920	0.01164568867534399
0	5866	-0.009496675804257393
0	5664	-0.0354410819709301
0	5702	0.00665436964482069
0	5424	-0.048607632517814636
0	5356	-0.011887695640325546
0	5192	-0.028689386323094368
0	5166	-0.004556660540401936
0	5216	0.008794455789029598
0	5080	-0.024102933704853058
0	5224	0.025635547935962677
0	5140	-0.014902601018548012
0	5276	0.02411632426083088
0	5286	0.0017756943125277758
0	5242	-0.007834757678210735
0	5358	0.020705165341496468
0	5306	-0.009306986816227436
0	5440	0.0240534208714962
0	5354	-0.01546410284936428
0	5456	0.018394066020846367
0	5498	0.007585152518004179
0	5430	-0.012302199378609657
0	5552	0.022124964743852615
0	5394	-0.028679298236966133
0	5546	0.027664531022310257
0	5560	0.002551640383899212
0	5422	-0.02520056813955307
0	5636	0.03920036181807518
0	5462	-0.03191528469324112
0	5530	0.01251364778727293
0	5592	0.011432223953306675
0	5422	-0.03140974044799805
0	5578	0.028902091085910797
0	5498	-0.014829461462795734
0	5484	-0.002598430961370468
0	5534	0.00927666760981083
0	5388	-0.027058083564043045
0	5474	0.015919046476483345
0	5526	0.009607212617993355
0	5384	-0.026185091584920883
0	5566	0.033498574048280716
0	5438	-0.023510107770562172
0	5614	0.032267529517412186
0	5718	0.019027872011065483
0	5596	-0.02226250246167183
0	5702	0.019301269203424454
0	5516	-0.033797696232795715
0	5534	0.0032665899489074945
0	5492	-0.007617711555212736
0	5340	-0.027545878663659096
0	5468	0.023212796077132225
0	5330	-0.0250308346003294
0	5474	0.026134934276342392
0	5396	-0.014163105748593807
0	5446	0.009078803472220898
0	5586	0.025436045601963997
0	5822	0.042871154844760895
0	6524	0.12721538543701172
0	5942	-0.10490645468235016
1	4822	-0.20130127668380737
0	4776	-0.008302949368953705
0	5128	0.0638490840792656
0	5436	0.055967435240745544
0	5684	0.04510348290205002
0	5588	-0.017439749091863632
0	5740	0.027595555409789085
0	5606	-0.02429737150669098
0	5696	0.016297655180096626
0	5684	-0.002170112682506442
0	5570	-0.0205964557826519
0	5744	0.03140151873230934
0	5564	-0.03244958072900772
0	5694	0.02341807819902897
0	5662	-0.0057616825215518475
0	5634	-0.0050431666895747185
0	5778	0.02593037113547325
0	5636	-0.02555856853723526
0	5722	0.015467996709048748
0	5846	0.022277584299445152
0	5718	-0.02294756844639778
0	5738	0.003577476367354393
0	5736	-0.0003571726265363395
0	5560	-0.03135540708899498
0	5528	-0.005698073655366898
0	5338	-0.03380582481622696
0	5100	-0.04237338528037071
0	5182	0.014641462825238705
0	4920	-0.04696013778448105
0	5068	0.0267837755382061
0	4992	-0.01382672879844904
0	5020	0.005088811740279198
0	5084	0.011614401824772358
0	5064	-0.003630466992035508
0	5218	0.028017660602927208
0	5198	-0.0036489691119641066
0	5178	-0.0036576443817466497
0	5344	0.03046281449496746
0	5180	-0.03014410473406315
0	5340	0.029502149671316147
0	5284	-0.010347630828619003
0	5342	0.010736101306974888
0	5458	0.02152559719979763
0	5344	-0.021168343722820282
0	5486	0.02642483077943325
0	5414	-0.013413149863481522
0	5490	0.014177693985402584
0	5560	0.01308183092623949
0	5442	-0.022062674164772034
0	5562	0.0224758367985487
0	5508	-0.01013209205120802
0	5542	0.006387855391949415
0	5616	0.013920065946877003
0	5470	-0.0274845939129591
0	5580	0.020719271153211594
0	5484	-0.018076373264193535
0	5582	0.018436070531606674
0	5580	-0.00037511251866817474
0	5480	-0.018709074705839157
0	5672	0.035796407610177994
0	5526	-0.027118392288684845
0	5624	0.01814277283847332
0	5624	0.0
0	5666	0.007720966823399067
0	5746	0.014652552083134651
0	5600	-0.026654982939362526
0	5616	0.002913965377956629
0	5572	-0.0079921530559659
0	5358	-0.03881734237074852
0	5470	0.02029377780854702
0	5272	-0.03584834933280945
0	5440	0.030418984591960907
0	5460	0.003619167022407055
0	5344	-0.020990915596485138
0	5482	0.02497195079922676
0	5612	0.023524869233369827
0	6312	0.1265212744474411
0	6140	-0.030934879556298256
1	5078	-0.19034305214881897
0	4610	-0.08406279981136322
0	5106	0.08960293233394623
0	5390	0.051429398357868195
0	5610	0.03987625986337662
0	5696	0.015588558278977871
0	5580	-0.020997755229473114
0	5718	0.02498008869588375
0	5692	-0.0046997577883303165
0	5724	0.005780485924333334
0	5772	0.008663217537105083
0	5594	-0.03206976130604744
0	5750	0.028119254857301712
0	5694	-0.01008052472025156
0	5678	-0.0028789404314011335
0	5838	0.02878008410334587
0	5632	-0.03701618313789368
0	5836	0.036681849509477615
0	5890	0.00969618558883667
0	5830	-0.010755900293588638
0	5956	0.022552624344825745
0	5794	-0.02889314293861389
0	5866	0.012816709466278553
0	5730	-0.02412431128323078
0	5646	-0.014874803833663464
0	5522	-0.021933961659669876
0	5232	-0.051243387162685394
0	5240	0.0014156954130157828
0	5166	-0.013123980723321438
0	5000	-0.02964109182357788
0	5102	0.01833762787282467
0	5014	-0.01581842452287674
0	5152	0.024746261537075043
0	5242	0.01613442972302437
0	5136	-0.01901959255337715
0	5274	0.024831756949424744
0	5178	-0.01731809973716736
0	5294	0.020976746454834938
0	5326	0.005801515653729439
0	5256	-0.012718947604298592
0	5412	0.028425656259059906
0	5266	-0.026661796495318413
0	5370	0.01902996003627777
0	5448	0.014305626973509789
0	5332	-0.02130707912147045
0	5452	0.02208860032260418
0	5416	-0.0066423118114471436
0	5396	-0.0036950816866010427
0	5462	0.012226901948451996
0	5356	-0.019689183682203293
0	5466	0.0204923115670681
0	5422	-0.00822194293141365
0	5424	0.0003745926369447261
0	5492	0.012771392241120338
0	5342	-0.0282142274081707
0	5478	0.02562974952161312
0	5404	-0.013949454762041569
0	5484	0.015064210630953312
0	5490	0.0011280881008133292
0	5514	0.004503208678215742
0	5656	0.02655860409140587
0	5498	-0.029449408873915672
0	5570	0.013379749841988087
0	5456	-0.021129893139004707
0	5356	-0.018510520458221436
0	5416	0.011091256514191628
0	5242	-0.032136525958776474
0	5374	0.02436983212828636
0	5360	-0.002583407098427415
0	5338	-0.004058790858834982
0	5464	0.023234086111187935
0	5376	-0.016221797093749046
0	5918	0.09984403103590012
0	6510	0.10868899524211884
0	6108	-0.07332912087440491
1	5052	-0.1917211264371872
0	4918	-0.024387285113334656
0	5134	0.03942996636033058
0	5538	0.07386640459299088
0	5552	0.0025585419498384
0	5728	0.03212616965174675
0	5652	-0.01385058369487524
0	5682	0.005459707695990801
0	5712	0.0054511758498847485
0	5636	-0.01379126776009798
0	5732	0.017389625310897827
0	5600	-0.02387411892414093
0	5676	0.013729481026530266
0	5804	0.023096634075045586
0	5680	-0.022332685068249702
0	5784	0.018711991608142853
0	5852	0.012225378304719925
0	5756	-0.017222819849848747
0	5956	0.03584100678563118
0	5840	-0.020725881680846214
0	5910	0.012471049092710018
0	5934	0.0042632813565433025
0	5820	-0.020167948678135872
0	5846	0.004587641451507807
0	5554	-0.05137588828802109
0	5514	-0.007028888911008835
0	5392	-0.021431833505630493
0	5234	-0.027753381058573723
0	5266	0.005643539596349001
0	5094	-0.03055749647319317
0	5234	0.025022640824317932
0	5202	-0.005713265389204025
0	5182	-0.003564765676856041
0	5304	0.021738871932029724
0	5254	-0.008921774104237556
0	5332	0.013942679390311241
0	5366	0.0060919527895748615
0	5404	0.006820302922278643
0	5504	0.017978066578507423
0	5386	-0.02124059572815895
0	5568	0.03281013295054436
0	5462	-0.019128048792481422
0	5582	0.021672386676073074
0	5596	0.0025298765394836664
0	5524	-0.013027116656303406
0	5644	0.021732306107878685
0	5496	-0.02682584896683693
0	5598	0.018527936190366745
0	5620	0.004000048618763685
0	5588	-0.005830124486237764
0	5630	0.007663767319172621
0	5508	-0.022299397736787796
0	5574	0.01209500152617693
0	5568	-0.0011012002360075712
0	5596	0.005147689487785101
0	5686	0.01654188707470894
0	5508	-0.03268173709511757
0	5696	0.034493301063776016
0	5778	0.015002560801804066
0	5726	-0.009484205394983292
0	5750	0.004360570572316647
0	5538	-0.0383983738720417
0	5576	0.006868794094771147
0	5418	-0.02849208377301693
0	5466	0.008649894967675209
0	5482	0.0028796314727514982
0	5354	-0.023016339167952538
0	5510	0.028053181245923042
0	5382	-0.02300337888300419
0	5496	0.020502367988228798
0	5622	0.022645579650998116
0	6246	0.11211326718330383
0	6428	0.032546885311603546
1	5544	-0.15729163587093353
0	4398	-0.20397266745567322
0	5042	0.11539426445960999
0	5414	0.06689684838056564
0	5580	0.029866499826312065
0	5752	0.03094935230910778
0	5642	-0.019777532666921616
0	5750	0.019411658868193626
0	5666	-0.015087110921740532
0	5750	0.015072852373123169
0	5774	0.004302000626921654
0	5672	-0.018261026591062546
0	5856	0.0329265221953392
0	5694	-0.02896028943359852
0	5800	0.018928345292806625
0	5888	0.015704376623034477
0	5786	-0.01819089613854885
0	5946	0.02852456644177437
0	5822	-0.02208082005381584
0	5954	0.023465830832719803
0	5926	-0.00496647646650672
0	5952	0.004597918130457401
0	5984	0.005642810370773077
0	5822	-0.02848268300294876
0	5830	0.0014027048600837588
0	5584	-0.043052658438682556
0	5504	-0.013984384946525097
0	5368	-0.0237723458558321
0	5192	-0.030809806659817696
0	5244	0.009159229695796967
0	5058	-0.0329912006855011
0	5212	0.027394011616706848
0	5152	-0.010621725581586361
0	5214	0.010968662798404694
0	5278	0.011335860937833786
0	5196	-0.014550014398992062
0	5400	0.03631702437996864
0	5278	-0.02175024151802063
0	5370	0.01644795760512352
0	5426	0.01002949196845293
0	5344	-0.014714502729475498
0	5480	0.024467473849654198
0	5380	-0.01801152713596821
0	5440	0.010837889276444912
0	5502	0.011216306127607822
0	5394	-0.019573254510760307
0	5560	0.030174870043992996
0	5444	-0.02111496776342392
0	5522	0.014241373166441917
0	5546	0.004389976151287556
0	5464	-0.015036491677165031
0	5556	0.016917984932661057
0	5448	-0.019908567890524864
0	5620	0.03181101009249687
0	5470	-0.027776747941970825
0	5562	0.0170743465423584
0	5558	-0.0007424639770761132
0	5488	-0.012988780625164509
0	5676	0.034858278930187225
0	5598	-0.014419344253838062
0	5728	0.023979930207133293
0	5542	-0.03416898474097252
0	5548	0.0011000024387612939
0	5474	-0.013533944264054298
0	5312	-0.029581477865576744
0	5422	0.020082032307982445
0	5296	-0.022971460595726967
0	5426	0.023715702816843987
0	5346	-0.014581156894564629
0	5466	0.02187492325901985
0	5444	-0.004009427968412638
0	5742	0.05427655577659607
0	6500	0.1378398984670639
0	6018	-0.0870591327548027
1	5106	-0.16415473818778992
0	4736	-0.0667564794421196
0	5164	0.07752780616283417
0	5460	0.05374586954712868
0	5690	0.04175795242190361
0	5608	-0.014872496016323566
0	5764	0.028283413499593735
0	5642	-0.022079050540924072
0	5756	0.020620545372366905
0	5720	-0.006499681156128645
0	5658	-0.01118716225028038
0	5762	0.018744366243481636
0	5676	-0.015481548383831978
0	5664	-0.0021586876828223467
0	5810	0.026236344128847122
0	5680	-0.023342391476035118
0	5812	0.0236898772418499
0	5844	0.005740116350352764
0	5814	-0.005371659062802792
0	5902	0.015731889754533768
0	5838	-0.011412268504500389
0	5904	0.011732221581041813
0	5738	-0.0294242762029171
0	5712	-0.0045966170728206635
0	5684	-0.00494187418371439
0	5346	-0.05953709036111832
0	5332	-0.002467771992087364
0	5138	-0.034218788146972656
0	5096	-0.007434593513607979
0	5152	0.0099955964833498
0	4982	-0.030500931665301323
0	5168	0.03339637443423271
0	5084	-0.015043338760733604
0	5152	0.012183759361505508
0	5300	0.026566464453935623
0	5202	-0.01763245463371277
0	5354	0.027415050193667412
0	5310	-0.00795554555952549
0	5374	0.011594903655350208
0	5452	0.014163963496685028
0	5378	-0.013459439389407635
0	5528	0.027329042553901672
0	5398	-0.023718876764178276
0	5450	0.009503618814051151
0	5554	0.019032049924135208
0	5412	-0.026026712730526924
0	5578	0.030475491657853127
0	5456	-0.02242976799607277
0	5578	0.022483229637145996
0	5518	-0.011073379777371883
0	5448	-0.012949533760547638
0	5552	0.019285688176751137
0	5378	-0.032336797565221786
0	5508	0.024213675409555435
0	5530	0.004102895502001047
0	5496	-0.006346915382891893
0	5536	0.007459996268153191
0	5452	-0.01564614847302437
0	5760	0.05725758150219917
0	5686	-0.01370032038539648
0	5666	-0.003690627170726657
0	5630	-0.006615296471863985
0	5434	-0.03591497614979744
0	5454	0.003656975692138076
0	5418	-0.006570461671799421
0	5342	-0.013861024752259254
0	5530	0.0342586413025856
0	5380	-0.02730483189225197
0	5542	0.029476696625351906
0	5502	-0.007270788308233023
0	5948	0.0810447409749031
0	6594	0.11698377877473831
0	5930	-0.11947460472583771
1	4768	-0.20841553807258606
0	4986	0.039260417222976685
0	5160	0.031443510204553604
0	5594	0.07854729145765305
0	5722	0.02316378802061081
0	5708	-0.002529480494558811
0	5816	0.019497869536280632
0	5690	-0.02270679362118244
0	5802	0.020154517143964767
0	5706	-0.01724943518638611
0	5734	0.005021220538765192
0	5800	0.011819766834378242
0	5682	-0.0210983045399189
0	5792	0.01964613050222397
0	5744	-0.008559811860322952
0	5692	-0.009257061406970024
0	5852	0.028494762256741524
0	5734	-0.020994199439883232
0	5900	0.029522307217121124
0	5832	-0.012074149213731289
0	5898	0.011691486462950706
0	5896	-0.00035336107248440385
0	5670	-0.03981770575046539
0	5696	0.004571991506963968
0	5554	-0.024945832788944244
0	5448	-0.018602583557367325
0	5314	-0.0235294122248888
0	5076	-0.04183708131313324
0	5170	0.01660875231027603
0	4996	-0.031003883108496666
0	5058	0.011108987033367157
0	5174	0.020748618990182877
0	5058	-0.020725388079881668
0	5226	0.030034324154257774
0	5152	-0.013258480466902256
0	5286	0.024090608581900597
0	5246	-0.007209458854049444
0	5276	0.005425674375146627
0	5362	0.015592515468597412
0	5246	-0.02108784206211567
0	5398	0.027709582820534706
0	5338	-0.010960372164845467
0	5352	0.002564634894952178
0	5502	0.02753371372818947
0	5340	-0.029789267107844353
0	5502	0.02986321784555912
0	5394	-0.019932083785533905
0	5492	0.018137624487280846
0	5504	0.0022242541890591383
0	5478	-0.004831037484109402
0	5552	0.013780089095234871
0	5432	-0.02239418774843216
0	5550	0.022084694355726242
0	5516	-0.006368154194205999
0	5426	-0.016875842586159706
0	5586	0.030025523155927658
0	5426	-0.02999962493777275
0	5620	0.0363491028547287
0	5680	0.01120392419397831
0	5668	-0.002233694074675441
0	5714	0.008526940830051899
0	5472	-0.04467802494764328
0	5584	0.020639581605792046
0	5426	-0.02902277745306492
0	5358	-0.012475538067519665
0	5460	0.01868976280093193
0	5348	-0.02050030417740345
0	5526	0.03256057947874069
0	5406	-0.021917540580034256
0	5490	0.01533817034214735
0	5564	0.013492160476744175
0	6224	0.12021419405937195
0	6544	0.05797381326556206
1	5556	-0.17771488428115845
0	4614	-0.1693858802318573
0	5154	0.09752456098794937
0	5344	0.03438623622059822
0	5608	0.0477931872010231
0	5706	0.017728999257087708
0	5602	-0.01879155822098255
0	5744	0.025638557970523834
0	5626	-0.021280689164996147
0	5690	0.011528623290359974
0	5746	0.01007907185703516
0	5590	-0.02803872711956501
0	5750	0.02872943878173828
0	5750	0.0
0	5640	-0.019693966954946518
0	5766	0.022555852308869362
0	5672	-0.016818750649690628
0	5866	0.03471021354198456
0	5748	-0.021093273535370827
0	5834	0.015347824431955814
0	5888	0.009622694924473763
0	5770	-0.020969824865460396
0	5858	0.01560043916106224
0	5692	-0.029359053820371628
0	5644	-0.008472182787954807
0	5528	-0.020460238680243492
0	5334	-0.034193456172943115
0	5340	0.0010584997944533825
0	5094	-0.043455734848976135
0	5152	0.01031428948044777
0	5058	-0.01685534231364727
0	5082	0.004316339734941721
0	5236	0.027619024738669395
0	5176	-0.01075538620352745
0	5274	0.0175847839564085
0	5328	0.009708970785140991
0	5272	-0.010091423988342285
0	5416	0.026000915095210075
0	5310	-0.019177420064806938
0	5438	0.02320185676217079
0	5438	0.0
0	5376	-0.011276554316282272
0	5554	0.032416682690382004
0	5426	-0.023338640108704567
0	5504	0.014250045642256737
0	5554	0.009142216295003891
0	5494	-0.010984852910041809
0	5650	0.02859167754650116
0	5490	-0.029363546520471573
0	5598	0.019851723685860634
0	5486	-0.020616784691810608
0	5526	0.0073813446797430515
0	5602	0.014045636169612408
0	5476	-0.023322967812418938
0	5620	0.026690389961004257
0	5556	-0.011864155530929565
0	5586	0.005560360848903656
0	5602	0.0029609159100800753
0	5672	0.012933104299008846
0	5768	0.0176739152520895
0	5600	-0.03081287257373333
0	5602	0.0003656084300018847
0	5596	-0.0010933609446510673
0	5418	-0.032365597784519196
0	5412	-0.0010893773287534714
0	5446	0.006167986895889044
0	5384	-0.011239485815167427
0	5512	0.023188406601548195
0	5408	-0.01882966421544552
0	5568	0.02895158901810646
0	5480	-0.01591089926660061
0	6056	0.10411770641803741
0	6510	0.08173013478517532
0	5778	-0.13102468848228455
1	4498	-0.2286340296268463
0	4950	0.08122289925813675
0	5182	0.04184100404381752
0	5624	0.07986412197351456
0	5706	0.01481874193996191
0	5692	-0.0025267412420362234
0	5794	0.01839871145784855
0	5626	-0.030247744172811508
0	5718	0.01655430532991886
0	5730	0.002157755894586444
0	5724	-0.001077238004654646
0	5800	0.01363652665168047
0	5632	-0.03009997494518757
0	5808	0.031524647027254105
0	5664	-0.025761209428310394
0	5760	0.017174959182739258
0	5840	0.014313148334622383
0	5742	-0.017508545890450478
0	5926	0.03284580633044243
0	5830	-0.01710335724055767
0	5980	0.026658767834305763
0	5830	-0.026569362729787827
0	5824	-0.0010603704722598195
0	5816	-0.001410171971656382
0	5570	-0.043285470455884933
0	5598	0.004922125022858381
0	5306	-0.05132170766592026
0	5276	-0.005278158932924271
0	5166	-0.019442185759544373
0	5052	-0.020309993997216225
0	5164	0.020040079951286316
0	5086	-0.01390126533806324
0	5174	0.015670817345380783
0	5256	0.01460304670035839
0	5238	-0.0032125646248459816
0	5338	0.017897412180900574
0	5258	-0.014348231256008148
0	5352	0.016913369297981262
0	5388	0.0064881229773163795
0	5316	-0.013002022169530392
0	5470	0.02787935920059681
0	5308	-0.02937265671789646
0	5494	0.03382474184036255
0	5398	-0.01747254654765129
0	5416	0.003284272039309144
0	5494	0.014253344386816025
0	5368	-0.023062000051140785
0	5512	0.026432689279317856
0	5440	-0.013234970159828663
0	5500	0.011062083765864372
0	5548	0.008867650292813778
0	5392	-0.028896737843751907
0	5544	0.02823214791715145
0	5478	-0.01227998360991478
0	5440	-0.00708514591678977
0	5518	0.014554954133927822
0	5442	-0.014188810251653194
0	5614	0.03208436444401741
0	5470	-0.02680499292910099
0	5506	0.006688632071018219
0	5704	0.03668433055281639
0	5556	-0.027329469099640846
0	5670	0.02099035121500492
0	5488	-0.03340920805931091
0	5474	-0.0025662959087640047
0	5450	-0.0043930294923484325
0	5248	-0.03694941848516464
0	5350	0.01865876466035843
0	5258	-0.016829678788781166
0	5426	0.030756836757063866
0	5492	0.012074938043951988
0	5348	-0.026341784745454788
0	5522	0.03182189539074898
0	6112	0.10788340866565704
0	6366	0.04624347761273384
0	5762	-0.10933445394039154
1	4312	-0.2620513439178467
0	4824	0.09312363713979721
0	5330	0.09241784363985062
0	5556	0.04130519554018974
0	5654	0.017904993146657944
0	5768	0.020814821124076843
0	5648	-0.021860312670469284
0	5780	0.02403116784989834
0	5766	-0.0025440978351980448
0	5676	-0.016322681680321693
0	5810	0.024279465898871422
0	5676	-0.024225622415542603
0	5780	0.0187949538230896
0	5730	-0.009019192308187485
0	5702	-0.005043954122811556
0	5856	0.027742082253098488
0	5738	-0.021218696609139442
0	5930	0.034511271864175797
0	5886	-0.007887943647801876
0	5870	-0.002861298620700836
0	5958	0.015697840601205826
0	5768	-0.03375057876110077
0	5808	0.007087841629981995
0	5678	-0.022960897535085678
0	5462	-0.038093894720077515
0	5462	0.0
0	5172	-0.05111933872103691
0	5208	0.006358925718814135
0	5116	-0.016337547451257706
0	5098	-0.003220304613932967
0	5218	0.021554047241806984
0	5130	-0.015721023082733154
0	5264	0.02389528974890709
0	5176	-0.015698587521910667
0	5292	0.020740458741784096
0	5324	0.00573387648910284
0	5264	-0.010779604315757751
0	5426	0.0291720200330019
0	5342	-0.015158441849052906
0	5468	0.022795801982283592
0	5474	0.0010868777753785253
0	5464	-0.001815145486034453
0	5536	0.013085833750665188
0	5420	-0.021113943308591843
0	5550	0.023706765845417976
0	5464	-0.01569744013249874
0	5530	0.012075674720108509
0	5562	0.005862309131771326
0	5428	-0.02460370771586895
0	5598	0.03130140155553818
0	5446	-0.028033936396241188
0	5510	0.011841034516692162
0	5514	0.0007412440609186888
0	5480	-0.006312037352472544
0	5562	0.015241825021803379
0	5428	-0.02489195019006729
0	5532	0.019323192536830902
0	5500	-0.005932371132075787
0	5446	-0.009992844425141811
0	5614	0.03102569468319416
0	5536	-0.014359175227582455
0	5616	0.014698677696287632
0	5712	0.01758606731891632
0	5596	-0.021191859617829323
0	5690	0.017128905281424522
0	5480	-0.03817441314458847
0	5458	-0.003995447885245085
0	5394	-0.011609485372900963
0	5292	-0.01850619912147522
0	5440	0.026860253885388374
0	5286	-0.027953917160630226
0	5406	0.021807080134749413
0	5380	-0.004726527724415064
0	5492	0.020379694178700447
0	5532	0.007275284267961979
0	5984	0.0822196900844574
0	6360	0.06818017363548279
1	5388	-0.17537318170070648
0	4566	-0.14846478402614594
0	4976	0.07443808764219284
0	5368	0.0714389830827713
0	5498	0.023702731356024742
0	5664	0.030268771573901176
0	5704	0.007287036161869764
0	5616	-0.016009703278541565
0	5730	0.020733052864670753
0	5600	-0.02359974943101406
0	5666	0.011976483277976513
0	5700	0.006163514219224453
0	5548	-0.027512308210134506
0	5736	0.034041937440633774
0	5650	-0.015553600154817104
0	5726	0.013742225244641304
0	5798	0.013017850928008556
0	5762	-0.006501011084765196
0	5908	0.02635379135608673
0	5784	-0.02232518047094345
0	5890	0.019047163426876068
0	5820	-0.012541057541966438
0	5828	0.001428758492693305
0	5838	0.0017818324267864227
0	5616	-0.039427414536476135
0	5586	-0.005321413278579712
0	5364	-0.03933055326342583
0	5300	-0.01134711503982544
0	5238	-0.011007610708475113
0	5058	-0.03209929168224335
0	5140	0.014737068675458431
0	5110	-0.005399633198976517
0	5106	-0.0007176088984124362
0	5244	0.02473827637732029
0	5154	-0.016145622357726097
0	5310	0.028043432161211967
0	5248	-0.011169158853590488
0	5314	0.011922396719455719
0	5356	0.007600801065564156
0	5310	-0.008343511261045933
0	5430	0.02180390991270542
0	5328	-0.018559852614998817
0	5438	0.020060788840055466
0	5444	0.0010949571151286364
0	5442	-0.00036563517642207444
0	5516	0.013545670546591282
0	5356	-0.029325513169169426
0	5540	0.0338156558573246
0	5434	-0.019507287070155144
0	5454	0.0036913533695042133
0	5546	0.017014769837260246
0	5446	-0.01853361912071705
0	5546	0.018576541915535927
0	5494	-0.009676698595285416
0	5506	0.002237859647721052
0	5578	0.013436345383524895
0	5446	-0.024634525179862976
0	5584	0.02574114501476288
0	5450	-0.024950968101620674
0	5614	0.030496874824166298
0	5598	-0.0029650861397385597
0	5496	-0.018849097192287445
0	5766	0.049776315689086914
0	5662	-0.0190956499427557
0	5692	0.005494304001331329
0	5612	-0.014603514224290848
0	5470	-0.025873690843582153
0	5500	0.005458912346512079
0	5300	-0.03635174036026001
0	5380	0.014545631594955921
0	5414	0.0061792717315256596
0	5328	-0.015631437301635742
0	5484	0.028354700654745102
0	5384	-0.018171025440096855
0	5520	0.024721579626202583
0	5800	0.050873324275016785
0	6510	0.12877871096134186
0	6074	-0.07853309065103531
1	4714	-0.24418270587921143
0	4850	0.02452394738793373
0	5232	0.0691344290971756
0	5544	0.05657298117876053
0	5634	0.016309469938278198
0	5732	0.017749764025211334
0	5614	-0.02134150080382824
0	5768	0.027834342792630196
0	5640	-0.02310858480632305
0	5680	0.0072130123153328896
0	5706	0.004685753956437111
0	5650	-0.010076896287500858
0	5786	0.02446717955172062
0	5654	-0.023720812052488327
0	5724	0.012567324563860893
0	5774	0.008978917263448238
0	5722	-0.009331817738711834
0	5870	0.026555022224783897
0	5788	-0.014690251089632511
0	5930	0.025390997529029846
0	5882	-0.00856093131005764
0	5830	-0.009242363274097443
0	5884	0.009572318755090237
0	5670	-0.0378296859562397
0	5690	0.0035283740144222975
0	5474	-0.03806032985448837
0	5376	-0.017258990556001663
0	5270	-0.01868368126451969
0	5052	-0.03854495659470558
0	5218	0.029605146497488022
0	5074	-0.02581292763352394
0	5066	-0.0014309734106063843
0	5258	0.03429919108748436
0	5166	-0.01643248461186886
0	5258	0.016469549387693405
0	5278	0.0035883879754692316
0	5256	-0.0039579737931489944
0	5382	0.02271716482937336
0	5274	-0.01951713114976883
0	5470	0.0354982428252697
0	5356	-0.020673146471381187
0	5424	0.012357494793832302
0	5438	0.0025476778391748667
0	5352	-0.01568312756717205
0	5514	0.029596969485282898
0	5444	-0.012805190868675709
0	5514	0.012831009924411774
0	5564	0.009176668711006641
0	5450	-0.020962048321962357
0	5574	0.022848159074783325
0	5448	-0.023267552256584167
0	5584	0.02518145553767681
0	5532	-0.009642844088375568
0	5548	0.0029734987765550613
0	5628	0.014878738671541214
0	5478	-0.027908360585570335
0	5600	0.022698236629366875
0	5516	-0.015606613829731941
0	5548	0.005936332978308201
0	5564	0.002959090517833829
0	5530	-0.006274683400988579
0	5638	0.01987559348344803
0	5466	-0.03154304251074791
0	5704	0.043591342866420746
0	5656	-0.008762748911976814
0	5646	-0.0018211619462817907
0	5704	0.010539194568991661
0	5538	-0.030082272365689278
0	5596	0.010500778444111347
0	5430	-0.029995663091540337
0	5414	-0.0028918450698256493
0	5464	0.00903385877609253
0	5310	-0.027817582711577415
0	5474	0.029646771028637886
0	5362	-0.0202317014336586
0	5436	0.013379620388150215
0	5578	0.025675643235445023
0	6016	0.07916616648435593
0	6456	0.07931166887283325
0	5778	-0.12147780507802963
1	4528	-0.2236909568309784
0	4958	0.07737431675195694
0	5210	0.04551584646105766
0	5534	0.05863404646515846
0	5724	0.03438706323504448
0	5626	-0.017726220190525055
0	5730	0.018794726580381393
0	5708	-0.0039726970717310905
0	5718	0.0018036867259070277
0	5764	0.008288487792015076
0	5628	-0.024475693702697754
0	5776	0.02661966346204281
0	5644	-0.02372223511338234
0	5762	0.021183650940656662
0	5738	-0.004307044669985771
0	5704	-0.0060986545868217945
0	5874	0.03048270381987095
0	5782	-0.016479775309562683
0	5854	0.012878453359007835
0	5908	0.00964400451630354
0	5798	-0.01958945207297802
0	5904	0.018834175541996956
0	5720	-0.032608311623334885
0	5760	0.007071635685861111
0	5612	-0.026121027767658234
0	5456	-0.027492539957165718
0	5348	-0.019031060859560966
0	5106	-0.0427013598382473
0	5172	0.011708494275808334
0	5078	-0.01680331863462925
0	5066	-0.0021540892776101828
0	5132	0.011809473857283592
0	5084	-0.008579804562032223
0	5204	0.021465623751282692
0	5252	0.008603177964687347
0	5196	-0.01006542518734932
0	5334	0.024868151172995567
0	5292	-0.007586613297462463
0	5376	0.01521132793277502
0	5384	0.0014516948722302914
0	5356	-0.005092637613415718
0	5460	0.018946753814816475
0	5364	-0.017522938549518585
0	5532	0.03071747161448002
0	5372	-0.029295802116394043
0	5476	0.019084902480244637
0	5564	0.016171317547559738
0	5400	-0.03019479289650917
0	5536	0.025098426267504692
0	5412	-0.022928711026906967
0	5494	0.015209032222628593
0	5516	0.004088155459612608
0	5468	-0.008941099978983402
0	5568	0.01865648292005062
0	5440	-0.02390884794294834
0	5568	0.02393447980284691
0	5520	-0.008969169110059738
0	5484	-0.006719677709043026
0	5578	0.017504654824733734
0	5464	-0.0211756844073534
0	5594	0.024090135470032692
0	5546	-0.0088659031316638
0	5580	0.006264048162847757
0	5640	0.011020632460713387
0	5578	-0.011357668787240982
0	5776	0.03619920462369919
0	5700	-0.01384570449590683
0	5592	-0.019631842151284218
0	5662	0.012701254338026047
0	5398	-0.04781915992498398
0	5488	0.016300607472658157
0	5352	-0.024612415581941605
0	5376	0.004346198868006468
0	5452	0.013761965557932854
0	5324	-0.023189246654510498
0	5518	0.03515639156103134
0	5464	-0.00978331733494997
0	5526	0.011239485815167427
0	6318	0.14346612989902496
0	6136	-0.032813288271427155
0	5444	-0.12422212213277817
1	4330	-0.2000359147787094
0	4970	0.11574352532625198
0	5296	0.059134386479854584
0	5642	0.06286565959453583
0	5594	-0.008710591122508049
0	5788	0.03519976884126663
0	5704	-0.015216471627354622
0	5632	-0.01302538812160492
0	5812	0.032552868127822876
0	5654	-0.02851436473429203
0	5746	0.016597310081124306
0	5660	-0.015496239997446537
0	5736	0.013687774538993835
0	5706	-0.005399956833571196
0	5726	0.003597208531573415
0	5834	0.019430750980973244
0	5712	-0.021931927651166916
0	5804	0.016526946797966957
0	5962	0.028359120711684227
0	5822	-0.025043826550245285
0	5890	0.01213996671140194
0	5860	-0.005338774994015694
0	5714	-0.02590765617787838
0	5688	-0.004606553353369236
0	5484	-0.036066193133592606
0	5438	-0.008134203031659126
0	5248	-0.033602941781282425
0	5138	-0.01948627084493637
0	5164	0.004638163838535547
0	5004	-0.028708478435873985
0	5152	0.026625409722328186
0	5170	0.003222341649234295
0	5152	-0.0032185004092752934
0	5254	0.018253834918141365
0	5114	-0.02511240914463997
0	5278	0.029502063989639282
0	5206	-0.012991856783628464
0	5288	0.014840733259916306
0	5334	0.008342603221535683
0	5334	0.0
0	5386	0.00947648473083973
0	5384	-0.00036527900374494493
0	5398	0.0025612565223127604
0	5434	0.006599692162126303
0	5460	0.004774380009621382
0	5488	0.0051500252448022366
0	5450	-0.007004177663475275
0	5470	0.003692353144288063
0	5476	0.00110998738091439
0	5540	0.01187545619904995
0	5496	-0.008178641088306904
0	5498	0.00037266616709530354
0	5466	-0.005976095795631409
0	5510	0.008229836821556091
0	5486	-0.004493989050388336
0	5472	-0.002621461171656847
0	5524	0.009734789840877056
0	5478	-0.008596737869083881
0	5512	0.00634068064391613
0	5502	-0.0018608806421980262
0	5522	0.003710299963131547
0	5506	-0.0029614639934152365
0	5528	0.004063589032739401
0	5536	0.0014742558123543859
0	5506	-0.0055188992992043495
0	5622	0.021288571879267693
0	5734	0.020511317998170853
0	5700	-0.00620664469897747
0	5636	-0.011653879657387733
0	5578	-0.010542004369199276
0	5510	-0.012341347523033619
0	5468	-0.007616882678121328
0	5404	-0.011600787751376629
0	5410	0.0010875343577936292
0	5418	0.001450256211683154
0	5450	0.0058024972677230835
0	5460	0.0018136970466002822
0	5486	0.004715327639132738
0	5576	0.01632070727646351
0	6130	0.1004023402929306
0	6268	0.024921143427491188
1	5374	-0.16069887578487396
0	4566	-0.14534813165664673
0	5020	0.08211150765419006
0	5356	0.06094979867339134
0	5644	0.05228378623723984
0	5646	0.00036270433338359
0	5720	0.013410169631242752
0	5682	-0.00687625166028738
0	5776	0.016992252320051193
0	5728	-0.008662591688334942
0	5714	-0.002523462288081646
0	5744	0.005400669761002064
0	5682	-0.011146935634315014
0	5604	-0.014011305756866932
0	5892	0.05170370638370514
0	5838	-0.009678807109594345
0	5798	-0.007165034767240286
0	5872	0.013247562572360039
0	6082	0.03754156455397606
0	5978	-0.018536342307925224
0	5992	0.0024883579462766647
0	6072	0.014175182208418846
0	6086	0.002470907988026738
0	6068	-0.003164297202602029
0	6168	0.017512725666165352
0	6078	-0.015695666894316673
0	5864	-0.03718721121549606
0	5694	-0.029476702213287354
0	5408	-0.049556415528059006
0	5228	-0.031319960951805115
0	5256	0.00490156002342701
0	5182	-0.012963050045073032
0	5162	-0.0034909697715193033
0	5222	0.010464265011250973
0	5384	0.028275540098547935
0	5388	0.0006992192356847227
0	5406	0.0031512235291302204
0	5362	-0.007717132102698088
0	5460	0.017220374196767807
0	5430	-0.005281318444758654
0	5316	-0.020104164257645607
0	5278	-0.006717103533446789
0	5254	-0.004254062194377184
0	5182	-0.01279454119503498
0	5168	-0.0024940615985542536
0	5102	-0.011808487586677074
0	5096	-0.0010782317258417606
0	5066	-0.0054139248095452785
0	5012	-0.009792543016374111
0	4966	-0.00839610118418932
0	4916	-0.009182736277580261
0	4890	-0.004806684795767069
0	4872	-0.0033521216828376055
0	4866	-0.0011258585145696998
0	4920	0.010209483094513416
0	4860	-0.011433797888457775
0	4874	0.002688688226044178
0	4870	-0.0007730962242931128
0	4884	0.0027202777564525604
0	4934	0.009748362004756927
0	4932	-0.0003906809724867344
0	4972	0.007830138318240643
0	5026	0.01058519072830677
0	5146	0.023543570190668106
0	5192	0.00902952253818512
0	5154	-0.007468553259968758
0	5082	-0.014172669500112534
0	4962	-0.02367144078016281
0	4824	-0.027293942868709564
0	4750	-0.01469750888645649
0	4668	-0.016360079869627953
0	4836	0.03366328775882721
0	4866	0.006029100622981787
0	4920	0.010880662128329277
0	4996	0.015340518206357956
0	5042	0.009295808151364326
0	5534	0.09946493804454803
0	6314	0.15722425282001495
0	5962	-0.07036247849464417
1	4648	-0.26100772619247437
0	4650	0.0003981103072874248
0	4986	0.06700078397989273
0	5472	0.09685004502534866
0	5742	0.05359198525547981
0	5856	0.022497335448861122
0	5876	0.003922747913748026
0	5886	0.0019484314834699035
0	5956	0.01354996021836996
0	5966	0.0019222390837967396
0	5988	0.004199808929115534
0	5996	0.001517028664238751
0	6028	0.0060275765135884285
0	6032	0.0007484843372367322
0	6048	0.0029752682894468307
0	6108	0.011095221154391766
0	6096	-0.002206585370004177
0	6126	0.005484795197844505
0	6166	0.007266825530678034
0	6140	-0.004689246881753206
0	6206	0.011810037307441235
0	6174	-0.005676778499037027
0	6046	-0.022506680339574814
0	5978	-0.01187247596681118
0	5810	-0.02914339117705822
0	5590	-0.03796856850385666
0	5450	-0.02407952956855297
0	5262	-0.03225991129875183
0	5198	-0.010999209247529507
0	5162	-0.006226865574717522
0	5182	0.0034753999207168818
0	5200	0.0031182151287794113
0	5244	0.007598171941936016
0	5284	0.006897185929119587
0	5328	0.007595111150294542
0	5384	0.00968958716839552
0	5410	0.004511017352342606
0	5482	0.01252580527216196
0	5534	0.009067659266293049
0	5624	0.01573261432349682
0	5682	0.010159040801227093
0	5692	0.0017546938033774495
0	5778	0.01511724665760994
0	5824	0.008097831159830093
0	5810	-0.002467568963766098
0	5802	-0.0014120138948783278
0	5730	-0.012731044553220272
0	5710	-0.0035440465435385704
0	5618	-0.0163427721709013
0	5564	-0.009623724035918713
0	5456	-0.01931353658437729
0	5388	-0.012214983813464642
0	5270	-0.021296819671988487
0	5192	-0.014143587090075016
0	5152	-0.007287744432687759
0	5084	-0.012438872829079628
0	5022	-0.011376424692571163
0	5050	0.005151225253939629
0	5014	-0.0066316258162260056
0	5006	-0.001475361525081098
0	4926	-0.014767776243388653
0	4898	-0.005176876671612263
0	4944	0.008520727045834064
0	4892	-0.009650001302361488
0	4784	-0.02009103074669838
0	4636	-0.027625340968370438
0	4420	-0.04050658270716667
0	4254	-0.031323906034231186
0	4126	-0.024341387674212456
0	4058	-0.01304781623184681
0	3982	-0.014730395749211311
0	3954	-0.005487255286425352
0	3970	0.003171582706272602
0	4038	0.013642200268805027
0	4184	0.029644669964909554
0	4886	0.14412418007850647
0	5086	0.041320037096738815
1	4006	-0.22412219643592834
0	2686	-0.27719447016716003
0	3416	0.15650905668735504
0	4122	0.1537233293056488
0	4658	0.11784881353378296
0	4912	0.05614665895700455
0	5082	0.037677861750125885
0	5160	0.01730155013501644
0	5272	0.024841781705617905
0	5356	0.01860547624528408
0	5426	0.015466423705220222
0	5476	0.011016936041414738
0	5526	0.010979680344462395
0	5662	0.0297514870762825
0	5678	0.003481490071862936
0	5714	0.007789285387843847
0	5720	0.0012910445220768452
0	5842	0.02609625644981861
0	6068	0.04798029735684395
0	6158	0.018915509805083275
0	6328	0.03529949486255646
0	6404	0.015557616949081421
0	6494	0.018141504377126694
0	6570	0.015072785317897797
0	6572	0.00038998009404167533
0	6606	0.006518737878650427
0	6492	-0.021494833752512932
0	6392	-0.018568722531199455
0	6332	-0.010991023853421211
0	6354	0.003994770348072052
0	6454	0.018019748851656914
0	6540	0.015272417105734348
0	6574	0.0059032561257481575
0	6634	0.010230528190732002
0	6708	0.01244004163891077
0	6754	0.007645175326615572
0	6890	0.022374799475073814
0	7040	0.024435805156826973
0	7072	0.005160291213542223
0	7118	0.007346834056079388
0	7086	-0.005063344724476337
0	7148	0.009725083597004414
0	7166	0.0027989426162093878
0	7094	-0.011101403273642063
0	7128	0.005204028449952602
0	7200	0.010939367115497589
0	7146	-0.008143240585923195
0	7200	0.008085285313427448
0	7124	-0.011302683502435684
0	7026	-0.014498614706099033
0	6970	-0.008249609731137753
0	6994	0.0035244361497461796
0	6868	-0.01845000497996807
0	6650	-0.031863268464803696
0	6586	-0.009350710548460484
0	6588	0.00029218976851552725
0	6582	-0.0008766461396589875
0	6514	-0.009930970147252083
0	6372	-0.02072589285671711
0	6348	-0.003502286272123456
0	6314	-0.004961716942489147
0	6350	0.005257163196802139
0	6344	-0.0008770049316808581
0	6358	0.0020486407447606325
0	6374	0.0023444597609341145
0	6004	-0.05430421978235245
0	5950	-0.007954668253660202
0	5834	-0.017167042940855026
0	5702	-0.019651826471090317
0	5638	-0.009593380615115166
0	5590	-0.007248638663440943
0	5572	-0.002738864393904805
0	5516	-0.00858957227319479
0	5502	-0.002165663056075573
0	5504	0.00031194111215882003
0	6202	0.10979446023702621
0	6592	0.06166917830705643
1	5530	-0.16842171549797058
0	3718	-0.2899231016635895
0	4318	0.09777720272541046
0	4832	0.0850130096077919
0	5196	0.060921862721443176
0	5212	0.002705017803236842
0	5306	0.01604168489575386
0	5240	-0.011350087821483612
0	5172	-0.011784958653151989
0	5256	0.014677958562970161
0	5168	-0.01549659576267004
0	5166	-0.0003550002002157271
0	5046	-0.021453088149428368
0	5118	0.012972504831850529
0	5168	0.009073860943317413
0	5194	0.0047523886896669865
0	5264	0.012885174714028835
0	5178	-0.015937337651848793
0	5324	0.02725779265165329
0	5328	0.0007499624625779688
0	5400	0.013552005402743816
0	5258	-0.026800544932484627
0	5280	0.004163827747106552
0	5338	0.011002213694155216
0	5272	-0.012539740651845932
0	5152	-0.022842930629849434
0	5036	-0.022132618352770805
0	4946	-0.017222901806235313
0	4778	-0.032264258712530136
0	4704	-0.014342382550239563
0	4608	-0.018836086615920067
0	4578	-0.005921987816691399
0	4690	0.021984349936246872
0	4738	0.009398987516760826
0	4762	0.004702378995716572
0	4820	0.011396383866667747
0	4868	0.009455768391489983
0	4922	0.010668423026800156
0	4908	-0.0027716916520148516
0	4952	0.008726234547793865
0	4980	0.005564240738749504
0	5048	0.013530004769563675
0	5006	-0.008363313041627407
0	5048	0.008365534245967865
0	5044	-0.0007970879669301212
0	4982	-0.012365047819912434
0	5028	0.00918701570481062
0	5054	0.005200832150876522
0	5070	0.003203160362318158
0	5112	0.008422572165727615
0	5138	0.005221512634307146
0	5182	0.008851931430399418
0	5222	0.0080513134598732
0	5220	-0.0004027223912999034
0	5222	0.0004030416312161833
0	5240	0.003628593171015382
0	5296	0.011282285675406456
0	5254	-0.00844696443527937
0	5272	0.003612668253481388
0	5248	-0.004801024217158556
0	5412	0.03268842026591301
0	5456	0.008723465725779533
0	5406	-0.009855842217803001
0	5378	-0.005493427626788616
0	5298	-0.01563008688390255
0	5212	-0.016743896529078484
0	5108	-0.020197050645947456
0	5078	-0.005817034747451544
0	5152	0.014334232546389103
0	5160	0.001547209220007062
0	5236	0.014678805135190487
0	5304	0.013112056069076061
0	5350	0.008855349384248257
0	6284	0.179406076669693
0	6346	0.011815675534307957
1	5300	-0.1977066546678543
0	4268	-0.19467045366764069
0	4854	0.11107040196657181
0	5196	0.06490466743707657
0	5598	0.07623068988323212
0	5688	0.017014306038618088
0	5758	0.013187641277909279
0	5772	0.0026280221063643694
0	5764	-0.0014965765876695514
0	5762	-0.00037287926534190774
0	5742	-0.003716320963576436
0	5744	0.0003704801492858678
0	5708	-0.00665024621412158
0	5706	-0.00036842815461568534
0	5736	0.005511734168976545
0	5760	0.004396248608827591
0	5802	0.007677122484892607
0	5796	-0.0010944245150312781
0	5846	0.009098628535866737
0	5932	0.015605342574417591
0	5950	0.0032537567894905806
0	5978	0.005038992501795292
0	5926	-0.009309542365372181
0	5920	-0.0010687693720683455
0	5808	-0.0198598001152277
0	5610	-0.0349753275513649
0	5588	-0.003877608571201563
0	5422	-0.029209580272436142
0	5308	-0.020051123574376106
0	5300	-0.0014151944778859615
0	5252	-0.008543863892555237
0	5294	0.007478010840713978
0	5300	0.0010618215892463923
0	5332	0.005648188758641481
0	5370	0.0067018610425293446
0	5382	0.0021192177664488554
0	5434	0.00919984932988882
0	5472	0.006735837087035179
0	5506	0.006037503480911255
0	5548	0.007469499483704567
0	5548	0.0
0	5584	0.006417951546609402
0	5562	-0.003925814293324947
0	5570	0.0014288094826042652
0	5630	0.010724755004048347
0	5706	0.013593275099992752
0	5696	-0.0017891647294163704
0	5682	-0.0025064153596758842
0	5706	0.00429963693022728
0	5654	-0.009323674254119396
0	5654	0.0
0	5662	0.0014393493765965104
0	5690	0.005047288257628679
0	5692	0.0003610325511544943
0	5584	-0.019522540271282196
0	5698	0.020634977146983147
0	5738	0.0072365012019872665
0	5776	0.006868463009595871
0	5682	-0.016954246908426285
0	5552	-0.023394759744405746
0	5426	-0.022640695795416832
0	5362	-0.011488063260912895
0	5418	0.010047967545688152
0	5404	-0.002510220045223832
0	5410	0.0010753459064289927
0	5432	0.0039419932290911674
0	5452	0.0035825599916279316
0	5802	0.06268806010484695
0	6600	0.14264774322509766
0	5992	-0.10798010975122452
1	4346	-0.2915613651275635
0	4598	0.04495665058493614
0	5022	0.07608747482299805
0	5460	0.0788545086979866
0	5658	0.03567010536789894
0	5672	0.002521704649552703
0	5726	0.009728561155498028
0	5682	-0.007925547659397125
0	5688	0.0010807565413415432
0	5740	0.009367568418383598
0	5756	0.0028808412607759237
0	5790	0.006118041928857565
0	5770	-0.0035960874520242214
0	5774	0.0007188728195615113
0	5806	0.005748158786445856
0	5822	0.0028702642302960157
0	5798	-0.0043022059835493565
0	5816	0.0032254981342703104
0	5844	0.00501624308526516
0	5868	0.004295481368899345
0	5888	0.003572832327336073
0	5858	-0.005344545003026724
0	5818	-0.007105132099241018
0	5768	-0.008860429748892784
0	5628	-0.024755975231528282
0	5528	-0.017660148441791534
0	5426	-0.018003176897764206
0	5326	-0.017652874812483788
0	5230	-0.016994358971714973
0	5226	-0.0007138692890293896
0	5250	0.004302822984755039
0	5268	0.00320977671071887
0	5330	0.011012041941285133
0	5312	-0.003191225230693817
0	5364	0.009227165952324867
0	5352	-0.0021330551244318485
0	5392	0.007123690564185381
0	5398	0.0010706766042858362
0	5308	-0.016087323427200317
0	5280	-0.005016303155571222
0	5222	-0.01041953545063734
0	5110	-0.02018502913415432
0	5140	0.005428881850093603
0	5180	0.007266121916472912
0	5214	0.006198497489094734
0	5274	0.01097801886498928
0	5400	0.023131148889660835
0	5430	0.005520862992852926
0	5500	0.012912587262690067
0	5562	0.01146110612899065
0	5616	0.010001111775636673
0	5578	-0.007049656473100185
0	5646	0.012637056410312653
0	5778	0.024556921795010567
0	5856	0.014510007575154305
0	5748	-0.020062414929270744
0	5606	-0.026342477649450302
0	5510	-0.017789198085665703
0	5498	-0.0022211254108697176
0	5510	0.0022174587938934565
0	5574	0.011805794201791286
0	5544	-0.005522963125258684
0	5558	0.0025730247143656015
0	5698	0.025694360956549644
0	6508	0.14831000566482544
0	6470	-0.006909509655088186
1	5066	-0.25356999039649963
0	4380	-0.12413892149925232
0	4788	0.07428807020187378
0	5270	0.08803974837064743
0	5552	0.051511865109205246
0	5606	0.009844194166362286
0	5670	0.011632134206593037
0	5730	0.010870222002267838
0	5762	0.005778259132057428
0	5792	0.0053993090987205505
0	5780	-0.002153032924979925
0	5778	-0.0003580251068342477
0	5830	0.009289364330470562
0	5814	-0.0028526601381599903
0	5828	0.0024923449382185936
0	5836	0.0014224076876416802
0	5832	-0.0007101179799064994
0	5872	0.007093372289091349
0	5936	0.011343092657625675
0	5944	0.001417216844856739
0	5974	0.005308419466018677
0	5944	-0.005296921823173761
0	5908	-0.00634011160582304
0	5780	-0.022488493472337723
0	5688	-0.01613808609545231
0	5544	-0.02524278685450554
0	5410	-0.0234898142516613
0	5252	-0.027720920741558075
0	5182	-0.0123135382309556
0	5152	-0.0053185829892754555
0	5086	-0.011792734265327454
0	5182	0.01715102419257164
0	5202	0.0035561453551054
0	5206	0.0007094882312230766
0	5218	0.0021292702294886112
0	5260	0.007467197719961405
0	5292	0.005700983107089996
0	5314	0.003928244113922119
0	5396	0.014677979052066803
0	5472	0.01363375410437584
0	5498	0.004673121031373739
0	5520	0.003960871137678623
0	5514	-0.0010819127783179283
0	5530	0.0028905910439789295
0	5550	0.0036194289568811655
0	5506	-0.00797611940652132
0	5540	0.006175679620355368
0	5524	-0.002911349292844534
0	5540	0.002917507430538535
0	5552	0.0021934101823717356
0	5502	-0.009161088615655899
0	5548	0.008452567271888256
0	5532	-0.002947172150015831
0	5650	0.021785687655210495
0	5678	0.005173624027520418
0	5620	-0.010717453435063362
0	5520	-0.01846972294151783
0	5442	-0.014396633952856064
0	5424	-0.0033184210769832134
0	5498	0.013622138649225235
0	5544	0.008449876680970192
0	5560	0.0029308681841939688
0	5908	0.0635995864868164
0	5556	-0.06405512988567352
0	5548	-0.001452714204788208
0	6442	0.16201718151569366
0	7090	0.11660268157720566
1	4638	-0.43651124835014343
0	4672	0.006077143829315901
0	5948	0.22905969619750977
0	6174	0.04045490920543671
0	6686	0.09128186851739883
0	6690	0.0007082319934852421
0	6264	-0.07490680366754532
0	6260	-0.0007003373466432095
0	6342	0.014297669753432274
0	6452	0.019087059423327446
0	6508	0.009666060097515583
0	6734	0.03878984972834587
0	6772	0.0064779347740113735
0	6848	0.01286667212843895
0	6990	0.02385913021862507
0	7044	0.009000500664114952
0	6980	-0.010578395798802376
0	6820	-0.026253610849380493
0	6624	-0.03196103870868683
0	6422	-0.032760653644800186
0	6230	-0.030987733975052834
0	6020	-0.03374975919723511
0	5840	-0.028836295008659363
0	5572	-0.042855773121118546
0	5330	-0.03869234770536423
0	5054	-0.04418262466788292
0	4776	-0.04470651224255562
0	4634	-0.022931581363081932
0	4464	-0.027589041739702225
0	4328	-0.022309955209493637
0	4270	-0.009660441428422928
0	4192	-0.013018225319683552
0	4180	-0.0020081663969904184
0	4114	-0.011154930107295513
0	3976	-0.02359781041741371
0	4004	0.004863081034272909
0	4106	0.01799534261226654
0	4488	0.06826060265302658
0	4638	0.027089830487966537
0	4652	0.0025545889511704445
0	4834	0.033577270805835724
0	5042	0.038773179054260254
0	5154	0.021099695935845375
0	5192	0.007232309319078922
0	5268	0.014618195593357086
0	5338	0.013614438474178314
0	5410	0.014160034246742725
0	5374	-0.007153644692152739
0	5274	-0.020063400268554688
0	5190	-0.017006801441311836
0	5334	0.029398955404758453
0	5362	0.005751533899456263
0	5366	0.0008253662381321192
0	5384	0.0037262968253344297
0	5498	0.02363053523004055
0	5506	0.0016563604585826397
0	5658	0.03137298300862312
0	5728	0.014360938221216202
0	5780	0.010588906705379486
0	5938	0.03188912943005562
0	6022	0.01677204668521881
0	6276	0.05013091862201691
0	7252	0.1900237500667572
0	6624	-0.1198793575167656
1	4908	-0.32241901755332947
0	4634	-0.0511830635368824
0	4968	0.062147241085767746
0	5328	0.0666288286447525
0	5436	0.0198855958878994
0	5332	-0.019055763259530067
0	5374	0.007663767319172621
0	5416	0.007638677954673767
0	5394	-0.003992160782217979
0	5380	-0.0025367834605276585
0	5384	0.000723973149433732
0	5430	0.008319868706166744
0	5550	0.021691974252462387
0	5614	0.011559301987290382
0	5760	0.02633161097764969
0	5784	0.004315874073654413
0	5966	0.03261259198188782
0	6092	0.022493038326501846
0	6174	0.01457501295953989
0	6174	0.0
0	6312	0.02429862506687641
0	6256	-0.009813427925109863
0	6212	-0.007676918059587479
0	6112	-0.01739150658249855
0	5854	-0.04477041959762573
0	5716	-0.023936722427606583
0	5334	-0.06634479016065598
0	5184	-0.02615579590201378
0	5088	-0.016846636310219765
0	5028	-0.010664138942956924
0	4902	-0.02260846644639969
0	4958	0.01004856824874878
0	4986	0.0050145662389695644
0	4984	-0.00035814481088891625
0	5042	0.010407569818198681
0	5132	0.016187826171517372
0	5174	0.007563387975096703
0	5256	0.014784364961087704
0	5396	0.02526589296758175
0	5418	0.00397030683234334
0	5386	-0.005773672368377447
0	5404	0.003247651504352689
0	5438	0.006135412026196718
0	5444	0.0010834496933966875
0	5448	0.0007230396149680018
0	5490	0.00760621577501297
0	5406	-0.015239477157592773
0	5460	0.009830096736550331
0	5484	0.004385751206427813
0	5660	0.032297924160957336
0	5566	-0.0173044353723526
0	5416	-0.027740448713302612
0	5204	-0.03941057622432709
0	5080	-0.023196358233690262
0	5030	-0.009413950145244598
0	4990	-0.007570309564471245
0	4994	0.0007605141145177186
0	4972	-0.004191860090941191
0	4996	0.004579104017466307
0	5102	0.020236216485500336
0	5858	0.1442582905292511
0	6302	0.08421105891466141
1	5140	-0.21853333711624146
0	3424	-0.3224109411239624
0	4120	0.1320582926273346
0	4602	0.09199059009552002
0	5196	0.11374951899051666
0	5422	0.043272361159324646
0	5480	0.011093542911112309
0	5464	-0.003058649366721511
0	5540	0.014524327591061592
0	5520	-0.0038184456061571836
0	5528	0.001526251551695168
0	5492	-0.00686420314013958
0	5588	0.018298959359526634
0	5560	-0.005332453176379204
0	5578	0.003426482668146491
0	5586	0.0015212211292237043
0	5586	0.0
0	5606	0.0037975646555423737
0	5668	0.011776474304497242
0	5682	0.002657487755641341
0	5702	0.0037900321185588837
0	5660	-0.007934109307825565
0	5726	0.012422516942024231
0	5656	-0.01311811339110136
0	5576	-0.014930015429854393
0	5476	-0.018595194444060326
0	5362	-0.02113250456750393
0	5240	-0.02256445586681366
0	5182	-0.010718245059251785
0	5102	-0.014845605939626694
0	5088	-0.002617409685626626
0	5096	0.0014961473643779755
0	5096	0.0
0	5064	-0.005887403152883053
0	5116	0.009540000930428505
0	5152	0.006607848219573498
0	5152	0.0
0	5176	0.00442140968516469
0	5152	-0.004429243039339781
0	5158	0.0011099600233137608
0	5154	-0.0007416288717649877
0	5198	0.008176817558705807
0	5258	0.01117054931819439
0	5276	0.0033580418676137924
0	5298	0.004111534915864468
0	5266	-0.005990863777697086
0	5264	-0.00037517823511734605
0	5328	0.012029923498630524
0	5380	0.009791368618607521
0	5352	-0.005281822755932808
0	5226	-0.023817624896764755
0	5182	-0.008342286571860313
0	5070	-0.021299254149198532
0	5038	-0.006110913120210171
0	5054	0.0030675239395350218
0	5078	0.004616687074303627
0	5112	0.00655703991651535
0	5212	0.019316455349326134
0	5208	-0.0007727975025773048
0	5884	0.13058091700077057
0	6376	0.09456204622983932
1	5316	-0.20206384360790253
0	4074	-0.23642730712890625
0	4522	0.08583800494670868
0	4846	0.062294911593198776
0	5300	0.0874410942196846
0	5550	0.048104677349328995
0	5594	0.008444865234196186
0	5630	0.0068910070694983006
0	5652	0.0041983663104474545
0	5680	0.00532663706690073
0	5666	-0.0026544646825641394
0	5748	0.015501726418733597
0	5736	-0.0022615620400756598
0	5728	-0.0015033638337627053
0	5674	-0.010120445862412453
0	5706	0.005982053466141224
0	5684	-0.004101365804672241
0	5700	0.0029762275516986847
0	5752	0.009653585031628609
0	5782	0.005555624607950449
0	5826	0.008120378479361534
0	5750	-0.013970759697258472
0	5778	0.005125764291733503
0	5750	-0.005102722905576229
0	5682	-0.012340152636170387
0	5560	-0.022059088572859764
0	5420	-0.0252455435693264
0	5300	-0.02161201648414135
0	5228	-0.012960052117705345
0	5236	0.0014456961071118712
0	5248	0.002183538628742099
0	5308	0.010922198183834553
0	5380	0.013009226880967617
0	5414	0.006111663766205311
0	5460	0.008240675553679466
0	5506	0.008232809603214264
0	5556	0.008951055817306042
0	5606	0.008953086100518703
0	5604	-0.0003581747296266258
0	5676	0.01289798691868782
0	5716	0.007165719289332628
0	5718	0.00035817903699353337
0	5746	0.005015404429286718
0	5782	0.006447992287576199
0	5874	0.016472892835736275
0	5812	-0.011088060215115547
0	5828	0.0028596280608326197
0	5908	0.01428588479757309
0	5916	0.0014268218073993921
0	5966	0.008908950723707676
0	5858	-0.019222326576709747
0	5812	-0.0081857331097126
0	5722	-0.016009677201509476
0	5630	-0.016370883211493492
0	5626	-0.0007122845272533596
0	5572	-0.009619038552045822
0	5572	0.0
0	5588	0.002847312716767192
0	5598	0.001776535646058619
0	5884	0.05069783329963684
0	6556	0.11866781115531921
0	6066	-0.0858674943447113
1	4660	-0.2453010082244873
0	4716	0.009811250492930412
0	5222	0.08901450783014297
0	5648	0.07504580169916153
0	5858	0.03696358948945999
0	5906	0.008433875627815723
0	5940	0.005963517352938652
0	5980	0.007002147380262613
0	5974	-0.0010484622325748205
0	5932	-0.007328222971409559
0	5974	0.007319113239645958
0	6026	0.009049774147570133
0	6016	-0.0017378812190145254
0	5998	-0.0031256149522960186
0	5942	-0.009713677689433098
0	5974	0.005547016859054565
0	5944	-0.005198345519602299
0	5988	0.007623007521033287
0	5994	0.0010393690317869186
0	5972	-0.003808029228821397
0	5956	-0.002766921417787671
0	5922	-0.005871787667274475
0	5898	-0.004137835931032896
0	5860	-0.006541348062455654
0	5786	-0.012717398814857006
0	5670	-0.01991097442805767
0	5574	-0.016470318660140038
0	5512	-0.010638541541993618
0	5466	-0.007909941487014294
0	5478	0.002076435834169388
0	5480	0.0003472503740340471
0	5482	0.000345610169460997
0	5514	0.005505471024662256
0	5540	0.004465716890990734
0	5556	0.0027498339768499136
0	5556	0.0
0	5592	0.006210322957485914
0	5638	0.007951323874294758
0	5660	0.003810315625742078
0	5678	0.0031231925822794437
0	5678	0.0
0	5708	0.00522193219512701
0	5726	0.003138951025903225
0	5776	0.008734031580388546
0	5852	0.013292910531163216
0	5762	-0.015749868005514145
0	5800	0.0066581787541508675
0	5836	0.006313057150691748
0	5922	0.015094605274498463
0	5834	-0.01545215118676424
0	5682	-0.026711655780673027
0	5642	-0.007040683645755053
0	5558	-0.014809765852987766
0	5530	-0.004946472123265266
0	5566	0.006372132338583469
0	5556	-0.0017723373603075743
0	5626	0.012414722703397274
0	5582	-0.00780114158987999
0	5994	0.07301685214042664
0	6420	0.07526324689388275
1	5128	-0.22700385749340057
0	4684	-0.07817176729440689
0	5282	0.10578079521656036
0	5628	0.06128811091184616
0	5810	0.032221514731645584
0	5862	0.009192368015646935
0	5872	0.0017645813059061766
0	5896	0.004228031728416681
0	5898	0.0003518029989209026
0	5898	0.0
0	5890	-0.0014034431660547853
0	5864	-0.00455554248765111
0	5876	0.0021006441675126553
0	5866	-0.0017490059835836291
0	5826	-0.006992354989051819
0	5814	-0.002098024357110262
0	5888	0.012933897785842419
0	5916	0.004891399294137955
0	5872	-0.0076829055324196815
0	5868	-0.000698649266269058
0	5804	-0.011176175437867641
0	5742	-0.010819237679243088
0	5566	-0.03069481812417507
0	5414	-0.02650792896747589
0	5326	-0.015357051976025105
0	5230	-0.016776569187641144
0	5216	-0.002451237989589572
0	5218	0.0003510167880449444
0	5242	0.004221190232783556
0	5340	0.017312856391072273
0	5366	0.004622605629265308
0	5430	0.011362694203853607
0	5470	0.0070704687386751175
0	5464	-0.001059396774508059
0	5528	0.011311151087284088
0	5576	0.008497480303049088
0	5588	0.002127961255609989
0	5612	0.004263079259544611
0	5580	-0.005693680141121149
0	5574	-0.001069582300260663
0	5566	-0.0014288605889305472
0	5600	0.006084393709897995
0	5534	-0.011829512193799019
0	5614	0.01436815969645977
0	5742	0.02302379161119461
0	5866	0.022315537557005882
0	5808	-0.010434657335281372
0	5712	-0.017279446125030518
0	5596	-0.020904919132590294
0	5462	-0.02418888919055462
0	5404	-0.010495457798242569
0	5420	0.002902301261201501
0	5446	0.004725439939647913
0	5452	0.0010912794386968017
0	5454	0.0003636760520748794
0	6202	0.13590939342975616
0	6312	0.01986970193684101
1	4556	-0.31511321663856506
0	4414	-0.02558312751352787
0	5006	0.10718942433595657
0	5488	0.08744874596595764
0	5748	0.04713674634695053
0	5764	0.002895158948376775
0	5758	-0.001083762850612402
0	5770	0.002163695404306054
0	5776	0.0010802765609696507
0	5786	0.001798302517272532
0	5746	-0.007184682413935661
0	5752	0.001076838350854814
0	5740	-0.002151462947949767
0	5770	0.005373327061533928
0	5784	0.0025045021902769804
0	5766	-0.0032165448646992445
0	5814	0.00856561679393053
0	5782	-0.0057036252692341805
0	5806	0.004276702646166086
0	5876	0.012478163465857506
0	5850	-0.004632874391973019
0	5808	-0.007477744948118925
0	5782	-0.004623263143002987
0	5670	-0.01987789385020733
0	5554	-0.020555470138788223
0	5402	-0.02691345103085041
0	5306	-0.01700238510966301
0	5202	-0.018435141071677208
0	5114	-0.015622226521372795
0	5098	-0.0028588103596121073
0	5098	0.0
0	5162	0.011481192894279957
0	5226	0.01143006794154644
0	5206	-0.003567224368453026
0	5250	0.00786107312887907
0	5284	0.006092534866183996
0	5292	0.0014376594917848706
0	5310	0.0032437886111438274
0	5306	-0.0007228393224067986
0	5344	0.006886469665914774
0	5370	0.004724409431219101
0	5370	0.0
0	5416	0.008397122845053673
0	5492	0.013900913298130035
0	5464	-0.005130084231495857
0	5536	0.013217476196587086
0	5620	0.01544212270528078
0	5694	0.013619965873658657
0	5654	-0.0073661208152771
0	5498	-0.02875469997525215
0	5418	-0.014780326746404171
0	5306	-0.020747656002640724
0	5256	-0.009291146881878376
0	5326	0.013050125911831856
0	5310	-0.002989275846630335
0	5396	0.016091810539364815
0	5394	-0.0003742421686183661
0	5992	0.11183701455593109
0	6602	0.11352216452360153
1	5486	-0.20579014718532562
0	4032	-0.26747938990592957
0	4706	0.12480556964874268
0	5244	0.09990343451499939
0	5684	0.08169631659984589
0	5808	0.022955594584345818
0	5812	0.000737961963750422
0	5794	-0.003310081083327532
0	5802	0.0014666341012343764
0	5784	-0.0032900345977395773
0	5774	-0.001822489546611905
0	5780	0.0010906446259468794
0	5772	-0.001450589275918901
0	5794	0.003979451488703489
0	5760	-0.006136076524853706
0	5748	-0.0021621882915496826
0	5768	0.003597510512918234
0	5778	0.0017962566344067454
0	5792	0.0025123825762420893
0	5776	-0.0028696120716631413
0	5738	-0.006810361053794622
0	5730	-0.001431707525625825
0	5648	-0.014647739939391613
0	5598	-0.008913397789001465
0	5510	-0.0156557634472847
0	5326	-0.0326990969479084
0	5252	-0.013149477541446686
0	5110	-0.025254322215914726
0	5090	-0.0035629451740533113
0	5146	0.010029970668256283
0	5144	-0.0003613543522078544
0	5196	0.009414604865014553
0	5214	0.00323616829700768
0	5248	0.0060942089185118675
0	5296	0.008603383786976337
0	5306	0.0017965362640097737
0	5332	0.004685078747570515
0	5382	0.00903581827878952
0	5406	0.004347983747720718
0	5412	0.00108960154466331
0	5428	0.002912161871790886
0	5408	-0.003647860139608383
0	5438	0.005484193563461304
0	5418	-0.003663585288450122
0	5482	0.011750449426472187
0	5472	-0.001839136821217835
0	5492	0.003684507915750146
0	5570	0.014393976889550686
0	5642	0.013303769752383232
0	5556	-0.015905307605862617
0	5472	-0.015556516125798225
0	5366	-0.019663130864501
0	5272	-0.01747645065188408
0	5272	0.0
0	5280	0.001493856543675065
0	5318	0.007105991244316101
0	5340	0.00411419989541173
0	5328	-0.0022428787779062986
0	5700	0.06943494081497192
0	6508	0.15024544298648834
0	5726	-0.14419354498386383
1	3888	-0.3377021253108978
0	4518	0.11668682843446732
0	5086	0.10565738379955292
0	5570	0.0901225209236145
0	5700	0.02416536584496498
0	5694	-0.0011126083554700017
0	5700	0.0011101244017481804
0	5732	0.00590907409787178
0	5794	0.011425903998315334
0	5804	0.0018385732546448708
0	5832	0.005136169958859682
0	5838	0.0010977617930620909
0	5848	0.0018251505680382252
0	5878	0.005461164750158787
0	5860	-0.003268844448029995
0	5858	-0.00036235383595339954
0	5848	-0.0018077734857797623
0	5832	-0.0028876003343611956
0	5830	-0.0003605379315558821
0	5778	-0.00935857743024826
0	5762	-0.002874285914003849
0	5698	-0.011469945311546326
0	5602	-0.01716124452650547
0	5480	-0.021766280755400658
0	5362	-0.021027620881795883
0	5224	-0.024585198611021042
0	5096	-0.022819383069872856
0	5066	-0.005355676636099815
0	5020	-0.008243137039244175
0	5034	0.0025312795769423246
0	5092	0.010530647821724415
0	5128	0.0064889807254076
0	5156	0.005028554704040289
0	5202	0.008257737383246422
0	5252	0.008995610289275646
0	5334	0.014792542904615402
0	5344	0.0018078823341056705
0	5350	0.0010870614787563682
0	5390	0.007263834588229656
0	5392	0.0003640820796135813
0	5400	0.001459978404454887
0	5454	0.009880820289254189
0	5474	0.0036681541241705418
0	5478	0.0007353121181949973
0	5514	0.006634069606661797
0	5614	0.018467221409082413
0	5694	0.014795999974012375
0	5652	-0.007775282021611929
0	5548	-0.01927448809146881
0	5494	-0.010025372728705406
0	5404	-0.016738373786211014
0	5342	-0.011556528508663177
0	5344	0.0003736176004167646
0	5382	0.007110157515853643
0	5380	-0.0003744476707652211
0	5466	0.016099441796541214
0	5520	0.010093709453940392
0	6382	0.1607009768486023
0	6226	-0.02884686551988125
1	4732	-0.27422571182250977
0	4066	-0.12247149646282196
0	4968	0.16691957414150238
0	5510	0.10039887577295303
0	5798	0.05323212593793869
0	5822	0.0044197808019816875
0	5834	0.0022021851036697626
0	5820	-0.002561381785199046
0	5832	0.0021891153883188963
0	5814	-0.0032740766182541847
0	5798	-0.002902827924117446
0	5806	0.0014478589873760939
0	5800	-0.0010832410771399736
0	5848	0.008647921495139599
0	5820	-0.0050333160907030106
0	5820	0.0
0	5842	0.003939452115446329
0	5850	0.0014305810909718275
0	5846	-0.0007146259886212647
0	5876	0.00535351037979126
0	5844	-0.00569929089397192
0	5800	-0.007820275612175465
0	5686	-0.020214200019836426
0	5584	-0.018049689009785652
0	5456	-0.022618569433689117
0	5330	-0.02225545607507229
0	5222	-0.01908172108232975
0	5134	-0.0155704440549016
0	5096	-0.0067389425821602345
0	5110	0.002501786919310689
0	5138	0.005037058610469103
0	5182	0.007896153256297112
0	5182	0.0
0	5236	0.009614243172109127
0	5254	0.0032099676318466663
0	5282	0.0050094821490347385
0	5374	0.016512906178832054
0	5352	-0.003959635738283396
0	5386	0.006136666983366013
0	5410	0.004343419801443815
0	5400	-0.0018141795881092548
0	5398	-0.0003637112968135625
0	5450	0.009479939937591553
0	5454	0.0007307804771699011
0	5472	0.0032964213751256466
0	5546	0.013580805622041225
0	5620	0.01360360812395811
0	5642	0.004049825016409159
0	5566	-0.01400818396359682
0	5432	-0.024741200730204582
0	5346	-0.015922190621495247
0	5236	-0.020428378134965897
0	5228	-0.0014909054152667522
0	5300	0.013456434942781925
0	5310	0.0018722618697211146
0	5340	0.0056219082325696945
0	5388	0.008994490839540958
0	6092	0.13178256154060364
0	6534	0.08224683254957199
1	5356	-0.21726299822330475
0	3898	-0.26849839091300964
0	4568	0.12433040887117386
0	5228	0.12294165790081024
0	5606	0.0703919380903244
0	5730	0.023038620129227638
0	5742	0.0022229906171560287
0	5756	0.0025861430913209915
0	5768	0.0022114922758191824
0	5748	-0.0036764254327863455
0	5782	0.006236091256141663
0	5770	-0.0021959790028631687
0	5766	-0.0007303446182049811
0	5816	0.00910890568047762
0	5786	-0.005453223362565041
0	5804	0.003265365492552519
0	5826	0.003983005881309509
0	5846	0.0036148063372820616
0	5878	0.005775825586169958
0	5882	0.0007209545001387596
0	5910	0.0050371186807751656
0	5840	-0.012556805275380611
0	5820	-0.0035770924296230078
0	5714	-0.018892809748649597
0	5602	-0.019904742017388344
0	5468	-0.023772072046995163
0	5334	-0.023749882355332375
0	5276	-0.010280164889991283
0	5154	-0.021638110280036926
0	5142	-0.0021402074489742517
0	5134	-0.0014387109549716115
0	5152	0.0032414132729172707
0	5210	0.010366522707045078
0	5242	0.005697667133063078
0	5282	0.007121493108570576
0	5304	0.003924366552382708
0	5340	0.006437998730689287
0	5350	0.0017926287837326527
0	5356	0.0010781929595395923
0	5412	0.010088030248880386
0	5408	-0.0007220303523354232
0	5446	0.006874758750200272
0	5444	-0.0003625377721618861
0	5458	0.0025427115615457296
0	5506	0.008736804127693176
0	5476	-0.005469794850796461
0	5554	0.014249871484935284
0	5636	0.015005489811301231
0	5686	0.009161424823105335
0	5732	0.008438405580818653
0	5606	-0.023135114461183548
0	5530	-0.01398052554577589
0	5380	-0.027645694091916084
0	5352	-0.005174516700208187
0	5386	0.006297384388744831
0	5404	0.0033383613917976618
0	5452	0.008905820548534393
0	5492	0.007416105363518
0	5546	0.00999839510768652
0	6346	0.1477668732404709
0	6410	0.011734362691640854
1	5038	-0.2496088445186615
0	4204	-0.1518351286649704
0	4714	0.0934191420674324
0	5266	0.10143951326608658
0	5636	0.06800054013729095
0	5716	0.014672975055873394
0	5740	0.004391796886920929
0	5724	-0.0029209160711616278
0	5738	0.002550091128796339
0	5690	-0.008725897409021854
0	5700	0.001814794261008501
0	5692	-0.0014496080111712217
0	5692	0.0
0	5718	0.0046975500881671906
0	5722	0.0007217784295789897
0	5768	0.008288188837468624
0	5762	-0.001079680398106575
0	5732	-0.005394325125962496
0	5756	0.004314270801842213
0	5768	0.0021568250376731157
0	5750	-0.003232100745663047
0	5714	-0.006455700378865004
0	5658	-0.010022192262113094
0	5606	-0.009289364330470562
0	5512	-0.016770342364907265
0	5400	-0.019968857988715172
0	5264	-0.02425539493560791
0	5218	-0.008215165697038174
0	5224	0.0010736397234722972
0	5206	-0.003242619801312685
0	5198	-0.0014516598312184215
0	5220	0.003988204523921013
0	5230	0.0018017585389316082
0	5294	0.011495629325509071
0	5336	0.007542742416262627
0	5358	0.003958068322390318
0	5374	0.0028847886715084314
0	5370	-0.0007227870519272983
0	5426	0.010140640661120415
0	5404	-0.003991340287029743
0	5446	0.007633033208549023
0	5476	0.005460568703711033
0	5480	0.0007290312205441296
0	5530	0.009124643169343472
0	5530	0.0
0	5532	0.0003658313653431833
0	5552	0.003663585288450122
0	5602	0.009170722216367722
0	5646	0.008076654747128487
0	5566	-0.014694717712700367
0	5528	-0.00698863435536623
0	5420	-0.019889501854777336
0	5334	-0.01586657203733921
0	5352	0.0033275410532951355
0	5322	-0.005554595962166786
0	5362	0.0074148220010101795
0	5382	0.0037082817871123552
0	5396	0.0025939056649804115
0	6140	0.13769617676734924
0	6532	0.07214193046092987
1	5386	-0.20920298993587494
0	3968	-0.2585609555244446
0	4566	0.10987664759159088
0	5070	0.09298320859670639
0	5550	0.08867759257555008
0	5746	0.0361623615026474
0	5782	0.006626254878938198
0	5740	-0.007711327169090509
0	5764	0.00439651682972908
0	5770	0.0010968653950840235
0	5772	0.0003648081619758159
0	5770	-0.0003640865033958107
0	5764	-0.0010903143556788564
0	5800	0.006530651357024908
0	5806	0.0010866677621379495
0	5794	-0.0021697203628718853
0	5806	0.0021662996150553226
0	5808	0.0003604989324230701
0	5856	0.008641278371214867
0	5862	0.0010788004146888852
0	5844	-0.00323066976852715
0	5830	-0.002508001634851098
0	5810	-0.0035741091705858707
0	5780	-0.005346005316823721
0	5650	-0.02310727722942829
0	5536	-0.02022400125861168
0	5402	-0.02374763786792755
0	5312	-0.015948019921779633
0	5268	-0.007800681050866842
0	5202	-0.01176163088530302
0	5204	0.0003592513094190508
0	5212	0.0014385728863999248
0	5244	0.005711702164262533
0	5308	0.011377507820725441
0	5308	0.0
0	5382	0.013155555352568626
0	5434	0.009264428168535233
0	5442	0.0014282483607530594
0	5528	0.01538094598799944
0	5512	-0.002865603193640709
0	5586	0.013273860327899456
0	5542	-0.00790135283023119
0	5526	-0.0028771457727998495
0	5542	0.002881256164982915
0	5492	-0.009017891250550747
0	5538	0.008312150835990906
0	5578	0.007239120546728373
0	5582	0.0007249091286212206
0	5604	0.003992450889199972
0	5680	0.013813158497214317
0	5776	0.01746746152639389
0	5718	-0.010557612404227257
0	5662	-0.01020048838108778
0	5580	-0.014949862845242023
0	5486	-0.017158502712845802
0	5448	-0.006943344604223967
0	5452	0.0007312703528441489
0	5510	0.010600189678370953
0	5534	0.004381000995635986
0	5544	0.0018224673112854362
0	5894	0.0636541098356247
0	6666	0.13981792330741882
0	6244	-0.07576392590999603
1	4530	-0.3058930039405823
0	4328	-0.03621802479028702
0	5152	0.14861127734184265
0	5664	0.09246884286403656
0	5878	0.03859565034508705
0	5908	0.0053964597173035145
0	5938	0.005384191870689392
0	5908	-0.005370505154132843
0	5904	-0.0007146941497921944
0	5896	-0.0014263130724430084
0	5894	-0.0003557958989404142
0	5908	0.00248538376763463
0	5894	-0.0024792803451418877
0	5888	-0.0010603205300867558
0	5900	0.0021167753729969263
0	5934	0.005986337084323168
0	5916	-0.0031631109304726124
0	5932	0.002807772718369961
0	5962	0.005259774625301361
0	5928	-0.005952589679509401
0	5936	0.0013984384713694453
0	5858	-0.013606550171971321
0	5814	-0.007658923044800758
0	5692	-0.021191101521253586
0	5566	-0.021855521947145462
0	5414	-0.026356857270002365
0	5276	-0.02394586242735386
0	5182	-0.016336271539330482
0	5152	-0.005235297605395317
0	5162	0.0017606046749278903
0	5130	-0.005669938866049051
0	5154	0.004237438086420298
0	5222	0.011947990395128727
0	5248	0.004566477611660957
0	5316	0.01197225321084261
0	5332	0.0028263223357498646
0	5366	0.0060263741761446
0	5400	0.0060468097217381
0	5402	0.0003567691019270569
0	5460	0.010377279482781887
0	5474	0.0025113909505307674
0	5520	0.008272488601505756
0	5574	0.00973382219672203
0	5506	-0.012281018309295177
0	5554	0.00868893601000309
0	5556	0.0003627964179031551
0	5566	0.0018181377090513706
0	5560	-0.0010932014556601644
0	5564	0.0007304512546397746
0	5612	0.008786703459918499
0	5632	0.0036681992933154106
0	5708	0.013965112157166004
0	5752	0.00809249933809042
0	5632	-0.022078845649957657
0	5524	-0.01987827569246292
0	5376	-0.02724762260913849
0	5360	-0.0029463761020451784
0	5364	0.0007362143369391561
0	5390	0.004780056420713663
0	5448	0.010647672228515148
0	5456	0.0014660785673186183
0	5618	0.029629087075591087
0	6422	0.14663326740264893
0	6392	-0.005431764759123325
1	4874	-0.27296265959739685
0	4036	-0.1510871797800064
0	4636	0.10902615636587143
0	5254	0.11279568076133728
0	5660	0.0741678923368454
0	5768	0.01969844475388527
0	5762	-0.0010923126246780157
0	5840	0.014175289310514927
0	5828	-0.0021765942219644785
0	5796	-0.005795351695269346
0	5818	0.003977341111749411
0	5810	-0.001444008550606668
0	5812	0.0003604512894526124
0	5850	0.0068384683690965176
0	5810	-0.007185886614024639
0	5838	0.005022721830755472
0	5842	0.0007165633141994476
0	5876	0.006083160173147917
0	5894	0.0032172733917832375
0	5912	0.0032145536970347166
0	5890	-0.003922360949218273
0	5844	-0.008183499798178673
0	5838	-0.0010644589783623815
0	5766	-0.012737501412630081
0	5718	-0.008471584878861904
0	5552	-0.02924114093184471
0	5412	-0.024646151810884476
0	5234	-0.031343914568424225
0	5140	-0.016589796170592308
0	5102	-0.006757477764040232
0	5078	-0.0043007670901715755
0	5108	0.005369415506720543
0	5112	0.0007113725296221673
0	5162	0.008867135271430016
0	5216	0.009581716731190681
0	5266	0.008895319886505604
0	5314	0.008565004914999008
0	5292	-0.003936115652322769
0	5362	0.012565068900585175
0	5396	0.006120097823441029
0	5364	-0.0057739499025046825
0	5416	0.009408359415829182
0	5440	0.004352662246674299
0	5440	0.0
0	5498	0.010568899102509022
0	5452	-0.0083981454372406
0	5470	0.003293968504294753
0	5488	0.00330146006308496
0	5490	0.0003677011118270457
0	5512	0.004054751247167587
0	5498	-0.0025866529904305935
0	5498	0.0
0	5546	0.008909016847610474
0	5620	0.013759590685367584
0	5742	0.022705277428030968
0	5746	0.0007443245267495513
0	5696	-0.009292873553931713
0	5592	-0.019295230507850647
0	5496	-0.017771635204553604
0	5406	-0.016624387353658676
0	5388	-0.00331866554915905
0	5416	0.005152552388608456
0	5458	0.0077142538502812386
0	5482	0.004398826975375414
0	5540	0.010609756223857403
0	6394	0.15591149032115936
0	6638	0.044242437928915024
1	5414	-0.22017556428909302
0	4066	-0.24230368435382843
0	4588	0.09456407278776169
0	5094	0.09211500734090805
0	5634	0.09846587479114532
0	5800	0.03022908605635166
0	5804	0.0007268234039656818
0	5840	0.00652702059596777
0	5824	-0.002894914709031582
0	5824	0.0
0	5840	0.0028822943568229675
0	5804	-0.006471483502537012
0	5848	0.007894736714661121
0	5792	-0.010027695447206497
0	5826	0.006077578291296959
0	5858	0.005708916578441858
0	5840	-0.003205318469554186
0	5888	0.008536368608474731
0	5870	-0.0031983701046556234
0	5862	-0.0014204545877873898
0	5888	0.004611946176737547
0	5814	-0.01310337521135807
0	5774	-0.007069636136293411
0	5712	-0.01093422994017601
0	5592	-0.02112279273569584
0	5480	-0.019694270566105843
0	5300	-0.03164742514491081
0	5238	-0.01091241929680109
0	5178	-0.010579150170087814
0	5178	0.0
0	5152	-0.004657550249248743
0	5192	0.007176689803600311
0	5236	0.007841553539037704
0	5260	0.0042608086951076984
0	5332	0.012769882567226887
0	5318	-0.0024874736554920673
0	5380	0.011047492735087872
0	5440	0.010718113742768764
0	5454	0.0025068640243262053
0	5484	0.005383741110563278
0	5500	0.002877180464565754
0	5484	-0.002883056178689003
0	5474	-0.0018053799867630005
0	5468	-0.0010856715962290764
0	5496	0.00507638743147254
0	5432	-0.011626358143985271
0	5418	-0.0025498433969914913
0	5448	0.005477984435856342
0	5396	-0.00952067133039236
0	5410	0.0025706940796226263
0	5382	-0.005155651830136776
0	5410	0.005171712953597307
0	5312	-0.018146131187677383
0	5372	0.011141646653413773
0	5526	0.028657205402851105
0	5576	0.009308097884058952
0	5544	-0.005953636020421982
0	5486	-0.010774660855531693
0	5438	-0.008903288282454014
0	5428	-0.0018518747529014945
0	5486	0.0107243238016963
0	5544	0.010702291503548622
0	5562	0.0033142254687845707
0	5590	0.005145167000591755
0	5518	-0.013203741051256657
0	6072	0.10148006677627563
0	6714	0.11706071346998215
1	5384	-0.24055853486061096
0	4182	-0.21748046576976776
0	4640	0.08350756019353867
0	4934	0.0538816824555397
0	5382	0.08239030092954636
0	5638	0.04710962995886803
0	5662	0.004412089008837938
0	5692	0.005508562549948692
0	5682	-0.0018339874222874641
0	5674	-0.0014649510849267244
0	5698	0.004387996159493923
0	5702	0.0007302201702259481
0	5730	0.005102040711790323
0	5752	0.004000970162451267
0	5712	-0.007258210796862841
0	5746	0.006158229894936085
0	5750	0.00072260427987203
0	5790	0.007209632080048323
0	5826	0.006478393450379372
0	5848	0.003953089937567711
0	5874	0.004663342610001564
0	5826	-0.008589322678744793
0	5812	-0.002499434631317854
0	5754	-0.010331191122531891
0	5602	-0.027031833305954933
0	5480	-0.021689146757125854
0	5364	-0.020632492378354073
0	5250	-0.020303966477513313
0	5160	-0.016054991632699966
0	5114	-0.008250627666711807
0	5110	-0.0007243752479553223
0	5076	-0.006167390383780003
0	5088	0.0021650230046361685
0	5090	0.0003598675539251417
0	5082	-0.001438124687410891
0	5152	0.012606252916157246
0	5156	0.000722465047147125
0	5228	0.013044108636677265
0	5266	0.00690373545512557
0	5322	0.010199621319770813
0	5356	0.0062058898620307446
0	5404	0.008779523894190788
0	5420	0.002931834664195776
0	5454	0.006241967901587486
0	5452	-0.0003678453795146197
0	5464	0.0022105961106717587
0	5496	0.005905148573219776
0	5502	0.0011089480249211192
0	5568	0.0122201107442379
0	5618	0.009272423572838306
0	5654	0.006685650907456875
0	5656	0.0003719315573107451
0	5714	0.010797394439578056
0	5774	0.011176514439284801
0	5820	0.008567596785724163
0	6014	0.036084070801734924
0	5998	-0.0029661855660378933
0	5884	-0.021051594987511635
0	5806	-0.014347730204463005
0	5712	-0.017222637310624123
0	5642	-0.012778697535395622
0	5614	-0.005094985011965036
0	5656	0.0076176198199391365
0	5664	0.0014460096135735512
0	5668	0.000720512995030731
0	5620	-0.008615841157734394
0	6008	0.069450244307518
0	6708	0.12466311454772949
0	6094	-0.10839502513408661
1	4254	-0.3232569098472595
0	4474	0.03889353573322296
0	4842	0.0653981938958168
0	5272	0.07667161524295807
0	5286	0.0024984830524772406
0	5438	0.02715352550148964
0	5478	0.007146259769797325
0	5538	0.010718496516346931
0	5544	0.0010715816169977188
0	5530	-0.0024997321888804436
0	5524	-0.0010715561220422387
0	5408	-0.020728351548314095
0	5322	-0.015390121378004551
0	5210	-0.02008296176791191
0	5138	-0.012949484400451183
0	5034	-0.01877640374004841
0	5024	-0.0018140041502192616
0	5042	0.003284871345385909
0	5064	0.004038327373564243
0	5066	0.0003689719014801085
0	5102	0.00667185615748167
0	5152	0.009301518090069294
0	5200	0.008956671692430973
0	5202	0.00037415814585983753
0	5200	-0.0003752204356715083
0	5138	-0.011665684171020985
0	5116	-0.004153241869062185
0	5100	-0.0030301499646157026
0	5110	0.0019047618843615055
0	5196	0.01654885709285736
0	5218	0.004257954657077789
0	5178	-0.007693886291235685
0	5182	0.0007659313851036131
0	5140	-0.00802486389875412
0	5152	0.002294747391715646
0	5154	0.00038278489955700934
0	5244	0.017256585881114006
0	5328	0.016130270436406136
0	5488	0.030765680596232414
0	5540	0.010002436116337776
0	5634	0.01808016747236252
0	5684	0.009610332548618317
0	5776	0.01765180006623268
0	5844	0.013009208254516125
0	5866	0.004191913176327944
0	5866	0.0
0	5830	-0.006792196072638035
0	5766	-0.012014116160571575
0	5652	-0.021303631365299225
0	5616	-0.0067029125057160854
0	5528	-0.01632915623486042
0	5538	0.0018507094355300069
0	5500	-0.0070159886963665485
0	5520	0.0036858206149190664
0	5612	0.016921719536185265
0	5624	0.0022016195580363274
0	5670	0.008414531126618385
0	5924	0.04630642384290695
0	5992	0.012335228733718395
0	6058	0.01190891396254301
0	6070	0.0021540892776101828
0	6018	-0.009287040680646896
0	5996	-0.003909581806510687
0	5994	-0.0003537110169418156
0	6100	0.0186527781188488
0	6016	-0.014699705876410007
0	6074	0.010099017061293125
0	5974	-0.017328619956970215
0	6508	0.09219082444906235
0	7128	0.10641340911388397
0	6304	-0.14015354216098785
1	4794	-0.2558628022670746
0	5182	0.06607704609632492
0	5760	0.09876739978790283
0	5956	0.033508092164993286
0	6028	0.01230278518050909
0	5902	-0.02151002548635006
0	5962	0.010238675400614738
0	6008	0.00784090906381607
0	5958	-0.008505523204803467
0	5990	0.005432998761534691
0	6028	0.006434861104935408
0	5946	-0.013847453519701958
0	5796	-0.02526727132499218
0	5844	0.008073016069829464
0	5742	-0.017132874578237534
0	5686	-0.009400074370205402
0	5746	0.010070606134831905
0	5906	0.02688172087073326
0	5980	0.012438786216080189
0	5892	-0.014798538759350777
0	5704	-0.03164663538336754
0	5466	-0.0401340052485466
0	5272	-0.032812025398015976
0	5344	0.012227430008351803
0	5168	-0.030017737299203873
0	5026	-0.024336183443665504
0	5002	-0.004137930925935507
0	4926	-0.013177057728171349
0	4840	-0.015048470348119736
0	4724	-0.02057248167693615
0	4716	-0.001432168995961547
0	4680	-0.006447760853916407
0	4774	0.016886429861187935
0	4748	-0.004698455333709717
0	4830	0.014926821924746037
0	4712	-0.02163734845817089
0	4902	0.03509506583213806
0	4886	-0.0029747886583209038
0	5046	0.029956189915537834
0	4906	-0.026361707597970963
0	4888	-0.0034125810489058495
0	4914	0.004965053405612707
0	4892	-0.00422897981479764
0	5026	0.02590840496122837
0	4970	-0.010884777642786503
0	4998	0.005469746887683868
0	5058	0.011773631907999516
0	4994	-0.012615310959517956
0	5016	0.004362655803561211
0	5018	0.0003991484991274774
0	5132	0.022884521633386612
0	5078	-0.010881684720516205
0	5060	-0.003636706620454788
0	5076	0.003237249795347452
0	5172	0.019458672031760216
