0	5586	0.011455482803285122
0	5586	0.0
0	5502	-0.016089899465441704
0	5556	0.010345355607569218
0	5448	-0.020656941458582878
0	5436	-0.002288882387802005
0	5440	0.0007601769175380468
0	5452	0.0022705483715981245
0	5476	0.004519603680819273
0	5474	-0.0003749156603589654
0	5564	0.016803374513983727
0	5538	-0.004834091290831566
0	5606	0.012596790678799152
0	6264	0.1214769259095192
0	6780	0.09463144093751907
0	6766	-0.002543265698477626
1	4390	-0.42765092849731445
0	5164	0.14008542895317078
0	5292	0.023189246654510498
0	5288	-0.0007250141934491694
0	5408	0.02176673337817192
0	5442	0.0061646318063139915
0	5468	0.004711681045591831
0	5536	0.012317203916609287
0	5604	0.01230308972299099
0	5602	-0.000361302139936015
0	5638	0.006493584718555212
0	5700	0.01116661075502634
0	5752	0.00934512261301279
0	5844	0.016498887911438942
0	5982	0.024701375514268875
0	6096	0.020357385277748108
0	6210	0.020295772701501846
0	6202	-0.0014183056773617864
0	6128	-0.013069432228803635
0	6014	-0.020053710788488388
0	5816	-0.03471248224377632
0	5620	-0.034286513924598694
0	5390	-0.0401947982609272
0	5182	-0.03636829927563667
0	4932	-0.043786417692899704
0	4802	-0.02285325899720192
0	4744	-0.01024023350328207
0	4770	0.004613855388015509
0	4784	0.0025065350346267223
0	4876	0.016670089215040207
0	5018	0.026027029380202293
0	5102	0.015337423421442509
0	5220	0.021553561091423035
0	5224	0.0007309496286325157
0	5324	0.018280867487192154
0	5376	0.009510919451713562
0	5406	0.005489277187734842
0	5462	0.010250527411699295
0	5508	0.008423879742622375
0	5516	0.0014658815925940871
0	5500	-0.0029333040583878756
0	5448	-0.009541284292936325
0	5464	0.002940311562269926
0	5432	-0.005891016218811274
0	5464	0.005905947647988796
0	5442	-0.004073319956660271
0	5450	0.001487209927290678
0	5402	-0.00896548293530941
0	5456	0.01013665646314621
0	5612	0.029407329857349396
0	5638	0.004913633689284325
0	5594	-0.008324714377522469
0	5508	-0.016273701563477516
0	5466	-0.007941710762679577
0	5430	-0.006795017048716545
0	5436	0.0011289655230939388
0	5446	0.0018741566454991698
0	5462	0.002985557308420539
0	5466	0.0007431904668919742
0	5514	0.008880776353180408
0	5556	0.007740223314613104
0	5698	0.026083122938871384
0	6250	0.10102488845586777
0	7314	0.1935131847858429
0	7844	0.09518678486347198
1	5216	-0.46496814489364624
0	4832	-0.06800472736358643
0	5082	0.04442443698644638
0	5224	0.025290003046393394
0	5254	0.005351982079446316
0	5342	0.01572364568710327
0	5428	0.015380763448774815
0	5494	0.011805249378085136
0	5528	0.00608040438964963
0	5600	0.012868786230683327
0	5642	0.007500714156776667
0	5684	0.007491794880479574
0	5770	0.015319027937948704
0	5868	0.017418505623936653
0	5972	0.01843993552029133
0	6156	0.0325552336871624
0	6234	0.013758554123342037
0	6286	0.009137983433902264
0	6276	-0.00174933229573071
0	6164	-0.01950041763484478
0	5984	-0.031207019463181496
0	5832	-0.026269398629665375
0	5604	-0.03931666910648346
0	5324	-0.048244256526231766
0	5008	-0.054491523653268814
0	4824	-0.03182179853320122
0	4742	-0.014241551049053669
0	4694	-0.00838291272521019
0	4754	0.01057442557066679
0	4818	0.011451611295342445
0	4890	0.013119852170348167
0	4968	0.014241373166441917
0	5046	0.01422959566116333
0	5152	0.019341887906193733
0	5252	0.01825506053864956
0	5306	0.009857852011919022
0	5378	0.01314668357372284
0	5412	0.006210045889019966
0	5428	0.0029238341376185417
0	5462	0.006216934882104397
0	5470	0.0014640394365414977
0	5514	0.008060675114393234
0	5482	-0.005868401378393173
0	5476	-0.0011022657854482532
0	5470	-0.0011049180757254362
0	5468	-0.00036944448947906494
0	5474	0.0011130486382171512
0	5468	-0.0011183042079210281
0	5466	-0.0003746721486095339
0	5588	0.022971192374825478
0	5672	0.015873616561293602
0	5662	-0.0018934373511001468
0	5582	-0.015163768082857132
0	5538	-0.008341232314705849
0	5528	-0.0018931744853034616
0	5418	-0.020756805315613747
0	5452	0.0063918586820364
0	5452	0.0
0	5434	-0.00335307908244431
0	5528	0.01743689924478531
0	5512	-0.002955009927973151
0	5540	0.0051515414379537106
0	5890	0.06416916102170944
0	6290	0.07295985519886017
0	7804	0.2742554843425751
1	6802	-0.1787540763616562
0	4594	-0.39042791724205017
0	5004	0.07283450663089752
0	5154	0.026711303740739822
0	5202	0.008561542257666588
0	5286	0.015005895867943764
0	5336	0.008941877633333206
0	5400	0.011457761749625206
0	5456	0.010030449368059635
0	5498	0.007523735519498587
0	5524	0.004656772129237652
0	5562	0.006803776603192091
0	5622	0.010737165808677673
0	5722	0.017878852784633636
0	5758	0.006426582112908363
0	5858	0.01783357746899128
0	5912	0.009619494900107384
0	6028	0.020633472129702568
0	6142	0.02022424153983593
0	6248	0.018738068640232086
0	6252	0.0007041096687316895
0	6212	-0.0070068081840872765
0	6122	-0.015695666894316673
0	5960	-0.028142590075731277
0	5746	-0.037063125520944595
0	5500	-0.04255171865224838
0	5232	-0.04636036604642868
0	5060	-0.029806604608893394
0	4906	-0.026815876364707947
0	4770	-0.023873331025242805
0	4726	-0.007863321341574192
0	4732	0.0010856977896764874
0	4818	0.015548725612461567
0	4900	0.014842166565358639
0	4992	0.016677744686603546
0	5006	0.0025411422830075026
0	5156	0.027272727340459824
0	5212	0.010192938148975372
0	5246	0.0061956364661455154
0	5302	0.010217610746622086
0	5330	0.005114902276545763
0	5360	0.005486734211444855
0	5390	0.005493499338626862
0	5402	0.002200515940785408
0	5390	-0.002204828429967165
0	5368	-0.004051316529512405
0	5398	0.005541189573705196
0	5406	0.0014823415549471974
0	5376	-0.0055802189745008945
0	5406	0.005606847815215588
0	5390	-0.0030060873832553625
0	5416	0.004911405965685844
0	5408	-0.0015188143588602543
0	5412	0.0007628540624864399
0	5580	0.032151877880096436
0	5600	0.003831662470474839
0	5616	0.003063373500481248
0	5522	-0.01795332133769989
0	5494	-0.005332114174962044
0	5440	-0.01024512480944395
0	5422	-0.003400632180273533
0	5450	0.005266787949949503
0	5428	-0.004119644407182932
0	5480	0.009700406342744827
0	5472	-0.0014870073646306992
0	5462	-0.0018532476387917995
0	5558	0.01774119958281517
0	5814	0.047193001955747604
0	6316	0.09220144897699356
0	7542	0.2237117439508438
0	7128	-0.07452835142612457
1	4534	-0.46198782324790955
0	4960	0.07624388486146927
0	5084	0.022250134497880936
0	5208	0.02229253575205803
0	5240	0.005759193561971188
0	5326	0.015489727258682251
0	5378	0.009369932115077972
0	5392	0.002523098373785615
0	5506	0.020543254911899567
0	5512	0.0010805748170241714
0	5588	0.0136772645637393
0	5650	0.011146267876029015
0	5700	0.008975908160209656
0	5792	0.016487257555127144
0	5846	0.009665063582360744
0	5972	0.022518765181303024
0	6060	0.015694107860326767
0	6154	0.016710715368390083
0	6274	0.021249718964099884
0	6244	-0.005286405794322491
0	6216	-0.004910270683467388
0	6098	-0.02060103788971901
0	5964	-0.02330353669822216
0	5810	-0.026706745848059654
0	5570	-0.041539739817380905
0	5286	-0.04912474751472473
0	5074	-0.03672818839550018
0	4894	-0.031318146735429764
0	4832	-0.010877065360546112
0	4750	-0.014617450535297394
0	4808	0.010487360879778862
0	4832	0.00433244276791811
0	4906	0.013368661515414715
0	4998	0.01663833297789097
0	5066	0.012313487008213997
0	5170	0.018852191045880318
0	5254	0.015241136774420738
0	5320	0.01198416668921709
0	5388	0.01235270593315363
0	5362	-0.004726470913738012
0	5452	0.016375744715332985
0	5416	-0.006555705331265926
0	5428	0.00218834332190454
0	5418	-0.0018266397528350353
0	5406	-0.0021969706285744905
0	5446	0.007342952769249678
0	5422	-0.004419997800141573
0	5416	-0.001109344302676618
0	5432	0.002971768146380782
0	5426	-0.001120253000408411
0	5430	0.0007506568217650056
0	5424	-0.0011315487790852785
0	5476	0.009848484769463539
0	5588	0.021277673542499542
0	5650	0.011795294471085072
0	5630	-0.003803004277870059
0	5566	-0.01214313693344593
0	5570	0.0007565917912870646
0	5528	-0.007910498417913914
0	5464	-0.012001650407910347
0	5498	0.006347546819597483
0	5488	-0.0018589433748275042
0	5498	0.0018514175899326801
0	5492	-0.0011068069143220782
0	5532	0.007356366608291864
0	5560	0.00513478834182024
0	6036	0.08708379417657852
0	6606	0.10378606617450714
0	7714	0.20018309354782104
1	6482	-0.21951131522655487
0	4580	-0.336649090051651
0	5010	0.0765024721622467
0	5194	0.03281494975090027
0	5288	0.016787514090538025
0	5300	0.002144746482372284
0	5408	0.01931491680443287
0	5424	0.002862117486074567
0	5452	0.005008645821362734
0	5486	0.006080621853470802
0	5542	0.010011918842792511
0	5582	0.00714643020182848
0	5634	0.009281957522034645
0	5702	0.012122796848416328
0	5778	0.013530836440622807
0	5864	0.015293964184820652
0	6000	0.024155162274837494
0	6096	0.0170134324580431
0	6204	0.019080372527241707
0	6234	0.0052803885191679
0	6238	0.0007011475972831249
0	6208	-0.0052349320612847805
0	6052	-0.027109690010547638
0	5890	-0.02806069329380989
0	5662	-0.03940364718437195
0	5398	-0.04558063670992851
0	5208	-0.032829560339450836
0	4988	-0.03809040039777756
0	4832	-0.02717391401529312
0	4792	-0.00704018771648407
0	4738	-0.009670025669038296
0	4786	0.008686001412570477
0	4870	0.01518163736909628
0	4960	0.01627977006137371
0	5064	0.018838759511709213
0	5138	0.013422655873000622
0	5238	0.0181565098464489
0	5264	0.004725554492324591
0	5318	0.009824136272072792
0	5376	0.010560430586338043
0	5410	0.006194733548909426
0	5472	0.011305341497063637
0	5448	-0.004379189107567072
0	5452	0.0007306914776563644
0	5488	0.006586249452084303
0	5428	-0.010996529832482338
0	5458	0.005512949079275131
0	5426	-0.005900067742913961
0	5414	-0.002221673494204879
0	5410	-0.0007441860507242382
0	5420	0.0018700211076065898
0	5452	0.006014736369252205
0	5408	-0.00830962136387825
0	5512	0.01972087286412716
0	5622	0.020908571779727936
0	5630	0.0015210090205073357
0	5598	-0.006075103767216206
0	5558	-0.007575183641165495
0	5506	-0.009812431409955025
0	5448	-0.01089843176305294
0	5412	-0.006736862938851118
0	5462	0.009317579679191113
0	5464	0.0003711447352543473
0	5474	0.001848930143751204
0	5466	-0.0014744732761755586
0	5450	-0.002941681072115898
0	5764	0.05762031674385071
0	6236	0.08633619546890259
0	7484	0.22693385183811188
0	7426	-0.010409936308860779
1	4882	-0.451069176197052
0	4858	-0.004268690012395382
0	5096	0.042485836893320084
0	5140	0.007871011272072792
0	5182	0.007527241483330727
0	5314	0.023700369521975517
0	5330	0.0028747334145009518
0	5396	0.011867373250424862
0	5410	0.002517774235457182
0	5450	0.0071938131004571915
0	5550	0.017980221658945084
0	5574	0.004311893600970507
0	5676	0.01831216737627983
0	5768	0.016490411013364792
0	5850	0.014675527811050415
0	5970	0.021447209641337395
0	6076	0.018906738609075546
0	6192	0.020631758496165276
0	6272	0.014175516553223133
0	6260	-0.0021167504601180553
0	6236	-0.004213384352624416
0	6084	-0.02655671164393425
0	5864	-0.03829861059784889
0	5670	-0.033694203943014145
0	5374	-0.05135144293308258
0	5182	-0.03332677483558655
0	4964	-0.03789854049682617
0	4826	-0.024102559313178062
0	4748	-0.013735941611230373
0	4726	-0.003937477711588144
0	4764	0.00691244238987565
0	4804	0.0072814649902284145
0	4900	0.01748124323785305
0	4978	0.01422042865306139
0	5056	0.014234443195164204
0	5166	0.020089611411094666
0	5238	0.013161422684788704
0	5318	0.01463200431317091
0	5320	0.000365974148735404
0	5406	0.015745531767606735
0	5422	0.0029301883187144995
0	5426	0.0007331199012696743
0	5490	0.011740533635020256
0	5458	-0.005876951385289431
0	5478	0.0036800785455852747
0	5430	-0.008852386847138405
0	5416	-0.0025905456859618425
0	5426	0.001857953262515366
0	5408	-0.0033602567855268717
0	5416	0.0015015203971415758
0	5428	0.0022642365656793118
0	5516	0.01668921299278736
0	5606	0.01713002473115921
0	5612	0.0011438739020377398
0	5558	-0.010298660956323147
0	5548	-0.0019049312686547637
0	5444	-0.019765349105000496
0	5442	-0.00037895055720582604
0	5424	-0.0033973376266658306
0	5450	0.004886483307927847
0	5482	0.005986978765577078
0	5454	-0.0052152532152831554
0	5494	0.007420415990054607
0	5540	0.008502248674631119
0	5812	0.05010069161653519
0	6376	0.10340528935194016
0	7898	0.27699923515319824
1	6876	-0.18304696679115295
0	4548	-0.41311752796173096
0	4950	0.07166456431150436
0	5098	0.026455657556653023
0	5210	0.020059222355484962
0	5274	0.011477213352918625
0	5324	0.008978164754807949
0	5424	0.017970742657780647
0	5440	0.002876249374821782
0	5500	0.010785289108753204
0	5586	0.015451137907803059
0	5586	0.0
0	5672	0.015419923700392246
0	5732	0.010741651058197021
0	5810	0.013938859105110168
0	5892	0.01462805550545454
0	6026	0.02386379800736904
0	6118	0.01634393259882927
0	6222	0.018414685502648354
0	6290	0.011992663145065308
0	6210	-0.014039192348718643
0	6142	-0.011879943311214447
0	5976	-0.028880279511213303
0	5764	-0.03677108511328697
0	5526	-0.04121354967355728
0	5222	-0.052620645612478256
0	4980	-0.0419546477496624
0	4852	-0.02226293459534645
0	4726	-0.022037731483578682
0	4660	-0.011655697599053383
0	4734	0.013322452083230019
0	4776	0.0076598539017140865
0	4896	0.021855004131793976
0	4956	0.010931085795164108
0	5090	0.02443382702767849
0	5206	0.02116711065173149
0	5250	0.00803222693502903
0	5336	0.015706423670053482
0	5382	0.008405613712966442
0	5420	0.006946221459656954
0	5446	0.0047549959272146225
0	5394	-0.009518114849925041
0	5478	0.015393448993563652
0	5436	-0.007705856580287218
0	5474	0.006984609644860029
0	5498	0.004420432262122631
0	5408	-0.016616815701127052
0	5442	0.006301430519670248
0	5506	0.011911260895431042
0	5608	0.019068270921707153
0	5618	0.0018774170894175768
0	5548	-0.01319078914821148
0	5556	0.0015131646068766713
0	5468	-0.016689004376530647
0	5434	-0.00646011158823967
0	5458	0.004562737420201302
0	5464	0.0011389809660613537
0	5454	-0.0018925056792795658
0	5444	-0.0018853457877412438
0	5496	0.009759759530425072
0	5572	0.014190047048032284
0	5740	0.031204726547002792
0	6300	0.10339862108230591
0	7600	0.2379761040210724
0	7240	-0.06485473364591599
1	4806	-0.43290096521377563
0	4932	0.02246309630572796
0	5108	0.03143642842769623
0	5210	0.01824360527098179
0	5292	0.014681483618915081
0	5326	0.0060920980758965015
0	5422	0.017213555052876472
0	5458	0.006454003509134054
0	5490	0.005737577565014362
0	5602	0.02007504180073738
0	5612	0.0017910447204485536
0	5706	0.016824370250105858
0	5716	0.0017866500420495868
0	5842	0.022475115954875946
0	5942	0.017801830545067787
0	6016	0.013147297315299511
0	6124	0.01914282701909542
0	6212	0.015544956550002098
0	6246	0.005982895847409964
0	6252	0.0010510090505704284
0	6116	-0.023709625005722046
0	6004	-0.0194511990994215
0	5788	-0.03739612177014351
0	5492	-0.0511479489505291
0	5294	-0.03420437499880791
0	4976	-0.05499827116727829
0	4828	-0.025684932246804237
0	4746	-0.014306318014860153
0	4722	-0.004225401673465967
0	4776	0.00967048667371273
0	4822	0.008360798470675945
0	4892	0.012721722014248371
0	4968	0.01381550170481205
0	5046	0.014191106893122196
0	5158	0.020397262647747993
0	5250	0.01676853373646736
0	5290	0.007294035051018
0	5346	0.010219848714768887
0	5362	0.0029219475109130144
0	5408	0.008407150395214558
0	5440	0.005855372175574303
0	5442	0.0003663450770545751
0	5440	-0.00036693658330477774
0	5430	-0.001837784773670137
0	5410	-0.0036848699674010277
0	5468	0.01072115171700716
0	5524	0.010386526584625244
0	5610	0.01601012796163559
0	5540	-0.013080363161861897
0	5518	-0.004129128996282816
0	5468	-0.00942767783999443
0	5410	-0.010980828665196896
0	5358	-0.009881923906505108
0	5366	0.0015244483947753906
0	5400	0.006484095007181168
0	5432	0.006098567973822355
0	5436	0.0007601190591230989
0	5484	0.009086434729397297
0	5452	-0.006029544398188591
0	5830	0.07089892774820328
0	6544	0.13304348289966583
0	8034	0.27470162510871887
1	6620	-0.25575169920921326
0	4572	-0.3667709231376648
0	4946	0.06716873496770859
0	5104	0.02841215580701828
0	5182	0.014038540422916412
0	5278	0.017289405688643456
0	5322	0.007927547208964825
0	5378	0.01009203027933836
0	5436	0.010454343631863594
0	5476	0.007210065610706806
0	5540	0.011533748358488083
0	5578	0.006844051647931337
0	5650	0.0129561647772789
0	5764	0.0204844381660223
0	5772	0.0014349604025483131
0	5886	0.02041791006922722
0	5990	0.01859622448682785
0	6076	0.01533651165664196
0	6228	0.02701677940785885
0	6220	-0.0014155616518110037
0	6244	0.0042264931835234165
0	6100	-0.025227749720215797
0	5924	-0.030702315270900726
0	5812	-0.019478486850857735
0	5548	-0.04581265151500702
0	5346	-0.03503092750906944
0	5094	-0.043736837804317474
0	4886	-0.03617517277598381
0	4804	-0.014339841902256012
0	4746	-0.010246746242046356
0	4794	0.00864750612527132
0	4786	-0.0014572303043678403
0	4892	0.019283246248960495
0	4994	0.018561653792858124
0	5062	0.012382698245346546
0	5172	0.020045436918735504
0	5280	0.019693654030561447
0	5328	0.008754970505833626
0	5392	0.011676844209432602
0	5410	0.003284991253167391
0	5428	0.0032863107044249773
0	5458	0.005480920430272818
0	5454	-0.0007313238456845284
0	5510	0.010250777937471867
0	5472	-0.006966682150959969
0	5410	-0.011387569829821587
0	5456	0.008473535999655724
0	5428	-0.005174771882593632
0	5476	0.00890659261494875
0	5392	-0.01565937139093876
0	5412	0.003747704438865185
0	5564	0.02863134630024433
0	5598	0.006426006555557251
0	5598	0.0
0	5548	-0.009482268244028091
0	5502	-0.008723686449229717
0	5470	-0.006062672473490238
0	5412	-0.010962563566863537
0	5440	0.005274791736155748
0	5428	-0.0022516322787851095
0	5496	0.012705055065453053
0	5466	-0.005580772180110216
0	5500	0.006298318039625883
0	5542	0.007751175202429295
0	5688	0.026854032650589943
0	6376	0.12606120109558105
0	7634	0.22881880402565002
0	7838	0.03658361732959747
1	5210	-0.4643164277076721
0	4894	-0.05589095503091812
0	5070	0.031224127858877182
0	5162	0.01635633036494255
0	5254	0.016385072842240334
0	5314	0.010698619298636913
0	5368	0.009639988653361797
0	5418	0.00893144216388464
0	5496	0.013932385481894016
0	5534	0.006785956677049398
0	5572	0.00678167724981904
0	5680	0.019263241440057755
0	5726	0.00819068867713213
0	5802	0.013507268391549587
0	5856	0.009583757258951664
0	5968	0.01984713040292263
0	6082	0.02015748806297779
0	6172	0.015863876789808273
0	6224	0.00912985485047102
0	6174	-0.0087401382625103
0	6090	-0.014618526212871075
0	5954	-0.023579182103276253
0	5758	-0.03387877345085144
0	5556	-0.034863248467445374
0	5352	-0.03519020974636078
0	5056	-0.05110379680991173
0	4914	-0.024584772065281868
0	4794	-0.02086908183991909
0	4748	-0.008073857985436916
0	4760	0.0021423979196697474
0	4796	0.006547120865434408
0	4916	0.021878646686673164
0	4962	0.008385693654417992
0	5026	0.011674713343381882
0	5108	0.014970607124269009
0	5214	0.0193694569170475
0	5296	0.014993051066994667
0	5308	0.0021950684022158384
0	5356	0.00878616701811552
0	5424	0.012457710690796375
0	5418	-0.0010999486548826098
0	5460	0.007706893607974052
0	5408	-0.009554725140333176
0	5488	0.014728263020515442
0	5416	-0.013281029649078846
0	5444	0.005178855266422033
0	5454	0.0018555859569460154
0	5420	-0.006333593744784594
0	5424	0.00074862438486889
0	5404	-0.00376189686357975
0	5390	-0.0026461028028279543
0	5418	0.005315647926181555
0	5374	-0.00838159117847681
0	5490	0.022150931879878044
0	5622	0.025216825306415558
0	5584	-0.007246929686516523
0	5582	-0.0003801413986366242
0	5580	-0.0003785393200814724
0	5522	-0.010923473164439201
0	5454	-0.012744901701807976
0	5442	-0.00223939074203372
0	5452	0.0018586900550872087
0	5434	-0.0033345683477818966
0	5476	0.007758047431707382
0	5488	0.0022104603704065084
0	5540	0.009556364268064499
0	5808	0.04915386810898781
0	6544	0.1345684975385666
0	7542	0.18110769987106323
0	7968	0.07629759609699249
1	5462	-0.4421156346797943
0	4638	-0.14533482491970062
0	4978	0.06025947257876396
0	5060	0.01457018032670021
0	5166	0.01888248883187771
0	5220	0.009633681736886501
0	5318	0.017506668344140053
0	5368	0.008939213119447231
0	5420	0.009299663826823235
0	5470	0.0089421970769763
0	5524	0.00965377502143383
0	5600	0.013575954362750053
0	5636	0.006423753220587969
0	5710	0.01318383775651455
0	5794	0.014945910312235355
0	5862	0.012086739763617516
0	6024	0.02874753065407276
0	6074	0.008849557489156723
0	6142	0.012000422924757004
0	6214	0.012660156935453415
0	6120	-0.016455238685011864
0	6010	-0.01918024756014347
0	5894	-0.020161056891083717
0	5736	-0.02738776244223118
0	5524	-0.036693014204502106
0	5278	-0.04256889969110489
0	5118	-0.02772899530827999
0	4916	-0.035147957503795624
0	4822	-0.016511892899870872
0	4782	-0.007140052039176226
0	4786	0.0007278020493686199
0	4846	0.010961974039673805
0	4912	0.012042916379868984
0	5022	0.020079586654901505
0	5126	0.018988728523254395
0	5182	0.010227189399302006
0	5288	0.01936308853328228
0	5364	0.013885505497455597
0	5414	0.009135423228144646
0	5474	0.01096290908753872
0	5488	0.002557949861511588
0	5530	0.007675532251596451
0	5504	-0.004753546789288521
0	5526	0.004025469999760389
0	5492	-0.006228170823305845
0	5482	-0.0018351990729570389
0	5496	0.002575265010818839
0	5420	-0.01402541808784008
0	5430	0.00185290421359241
0	5450	0.003722176654264331
0	5424	-0.004861873108893633
0	5438	0.0026293385308235884
0	5424	-0.0026387874968349934
0	5566	0.026844115927815437
0	5586	0.0037849158979952335
0	5614	0.005296810530126095
0	5562	-0.009816136211156845
0	5514	-0.009035804308950901
0	5504	-0.0018754219636321068
0	5436	-0.01269872859120369
0	5462	0.0048357099294662476
0	5460	-0.00037042523035779595
0	5468	0.001476105535402894
0	5474	0.0011033061891794205
0	5492	0.003300773911178112
0	5560	0.012441755272448063
0	5614	0.009857491590082645
0	6452	0.15267083048820496
0	7454	0.18135090172290802
0	7890	0.07795179635286331
1	5576	-0.40784433484077454
0	4536	-0.18320611119270325
0	4840	0.05386696383357048
0	5082	0.04304977506399155
0	5102	0.003567224368453026
0	5206	0.018592676147818565
0	5312	0.0189814493060112
0	5348	0.006453617475926876
0	5444	0.017217054963111877
0	5452	0.0014346344396471977
0	5500	0.008607704192399979
0	5516	0.002867931965738535
0	5588	0.012899680994451046
0	5686	0.017540719360113144
0	5722	0.006438919808715582
0	5818	0.017156541347503662
0	5892	0.013208781369030476
0	6004	0.01995249278843403
0	6080	0.0134999118745327
0	6174	0.01664050668478012
0	6238	0.011280580423772335
0	6090	-0.025967948138713837
0	6038	-0.009090378880500793
0	5834	-0.035544198006391525
0	5608	-0.03929523378610611
0	5424	-0.03197108581662178
0	5170	-0.04416879266500473
0	4986	-0.03207884728908539
0	4832	-0.027079302817583084
0	4754	-0.013929566368460655
0	4764	0.0018198140896856785
0	4806	0.007681053597480059
0	4878	0.01314588263630867
0	4872	-0.0010952369775623083
0	4994	0.022298309952020645
0	5090	0.017557764425873756
0	5154	0.011713460087776184
0	5280	0.023083124309778214
0	5324	0.008064121939241886
0	5408	0.015406436286866665
0	5476	0.012475233525037766
0	5500	0.004403669852763414
0	5558	0.010643242858350277
0	5532	-0.004771984647959471
0	5580	0.008818126283586025
0	5544	-0.006619350519031286
0	5506	-0.006998845841735601
0	5504	-0.0003692353202495724
0	5448	-0.010370498523116112
0	5460	0.0022309531923383474
0	5442	-0.003361302660778165
0	5446	0.0007506756228394806
0	5452	0.0011305679799988866
0	5418	-0.006430219858884811
0	5468	0.009481069631874561
0	5606	0.026190927252173424
0	5596	-0.0018957105930894613
0	5574	-0.004159366711974144
0	5566	-0.001506912987679243
0	5534	-0.005999999586492777
0	5522	-0.0022390843369066715
0	5440	-0.015228614211082458
0	5452	0.002219865331426263
0	5442	-0.0018433632794767618
0	5450	0.001469543669372797
0	5518	0.01245634164661169
0	5476	-0.007673568557947874
0	5550	0.013493635691702366
0	5808	0.04696829617023468
0	6498	0.12524503469467163
0	7752	0.22612793743610382
0	7508	-0.04340555891394615
1	4914	-0.4560210704803467
0	4752	-0.028587225824594498
0	4978	0.04006476700305939
0	5076	0.017435241490602493
0	5214	0.024619994685053825
0	5218	0.0007148644072003663
0	5330	0.02005036547780037
0	5338	0.0014331780839711428
0	5428	0.01613500900566578
0	5482	0.009681814350187778
0	5494	0.0021510517690330744
0	5540	0.008243628777563572
0	5634	0.016833409667015076
0	5662	0.00500924326479435
0	5808	0.026110906153917313
0	5858	0.008930804207921028
0	6022	0.0292435884475708
0	6114	0.01636059768497944
0	6164	0.008861162699759007
0	6172	0.0014124293811619282
0	6140	-0.005625483579933643
0	6056	-0.014707598835229874
0	5816	-0.04187166318297386
0	5614	-0.03516713157296181
0	5370	-0.04245545342564583
0	5152	-0.037954848259687424
0	4948	-0.03559960797429085
0	4802	-0.025606248527765274
0	4748	-0.00956564862281084
0	4770	0.003967490512877703
0	4810	0.007334336172789335
0	4890	0.01467800047248602
0	4940	0.009166015312075615
0	5034	0.01723611168563366
0	5116	0.015039617195725441
0	5156	0.0073407962918281555
0	5280	0.022765103727579117
0	5288	0.0014691659016534686
0	5396	0.019839812070131302
0	5492	0.01763884536921978
0	5468	-0.0044094412587583065
0	5564	0.017640573903918266
0	5560	-0.0007349158986471593
0	5604	0.00808773934841156
0	5580	-0.004413062706589699
0	5588	0.0014730795519426465
0	5574	-0.0025821684394031763
0	5516	-0.01072710007429123
0	5532	0.0029701502062380314
0	5486	-0.008572706021368504
0	5504	0.0033688938710838556
0	5508	0.0007516253972426057
0	5494	-0.002639749553054571
0	5502	0.0015114874113351107
0	5506	0.0007562770624645054
0	5482	-0.004533776547759771
0	5502	0.003770312527194619
0	5464	-0.007138741668313742
0	5502	0.0071092708967626095
0	5514	0.002234525978565216
0	5656	0.026320340111851692
0	5666	0.0018439071718603373
0	5610	-0.010276863351464272
0	5636	0.004751924891024828
0	5574	-0.011290107853710651
0	5524	-0.00907968357205391
0	5482	-0.007609982043504715
0	5466	-0.0028955084271728992
0	5458	-0.0014462013496086001
0	5476	0.0032527379225939512
0	5516	0.00722900265827775
0	5502	-0.002529419492930174
0	5502	0.0
0	5842	0.06147318705916405
0	6456	0.11085434257984161
0	7908	0.2607758641242981
0	7490	-0.07404345273971558
1	4908	-0.45225247740745544
0	4776	-0.023202944546937943
0	4996	0.038843635469675064
0	5050	0.009561922401189804
0	5154	0.018465034663677216
0	5236	0.01458953507244587
0	5276	0.007127752993255854
0	5328	0.009278533980250359
0	5386	0.010360103100538254
0	5438	0.00929368007928133
0	5510	0.012873080559074879
0	5542	0.005719800945371389
0	5630	0.01572570577263832
0	5662	0.005714490078389645
0	5778	0.020714284852147102
0	5910	0.023555723950266838
0	6000	0.016032110899686813
0	6170	0.030217565596103668
0	6224	0.009564745239913464
0	6262	0.006703043356537819
0	6162	-0.017559057101607323
0	6032	-0.022734161466360092
0	5882	-0.026144247502088547
0	5642	-0.04173235967755318
0	5416	-0.03926929086446762
0	5126	-0.050414908677339554
0	4876	-0.043556030839681625
0	4798	-0.013666149228811264
0	4742	-0.009907529689371586
0	4818	0.013701758347451687
0	4860	0.007695596665143967
0	4898	0.0069647240452468395
0	4998	0.018314572051167488
0	5054	0.010256034322082996
0	5128	0.013552285730838776
0	5186	0.010623748414218426
0	5246	0.010993440635502338
0	5334	0.016126668080687523
0	5342	0.0014660069718956947
0	5416	0.013564210385084152
0	5444	0.005133093800395727
0	5474	0.005501962266862392
0	5502	0.005137300118803978
0	5528	0.0047740875743329525
0	5584	0.010291090235114098
0	5566	-0.0033117863349616528
0	5548	-0.003318788018077612
0	5510	-0.007025847677141428
0	5536	0.004826792515814304
0	5510	-0.004847430158406496
0	5514	0.000749260070733726
0	5536	0.004137671552598476
0	5476	-0.01131975743919611
0	5502	0.004917785059660673
0	5494	-0.00151450140401721
0	5484	-0.0018921953160315752
0	5496	0.0022655189968645573
0	5514	0.003385070478543639
0	5486	-0.005242136772722006
0	5502	0.0029816627502441406
0	5506	0.0007422619382850826
0	5544	0.007023423444479704
0	5498	-0.00846833549439907
0	5512	0.0025694360956549644
0	5456	-0.01024902705103159
0	5602	0.026667315512895584
0	5672	0.012753398157656193
0	5602	-0.01272048894315958
0	5610	0.001451413962058723
0	5598	-0.0021735981572419405
0	5512	-0.015560353174805641
0	5498	-0.0025320423301309347
0	5380	-0.021338414400815964
0	5464	0.015201235190033913
0	5472	0.0014482957776635885
0	5460	-0.0021739129442721605
0	5512	0.00942632369697094
0	5534	0.003988927695900202
0	5706	0.031181637197732925
0	6350	0.11663004010915756
0	8020	0.30091536045074463
0	7876	-0.025562433525919914
1	4734	-0.5501406788825989
0	4772	0.0066824546083807945
0	4960	0.0332026407122612
0	5050	0.015945008024573326
0	5114	0.01136780809611082
0	5234	0.02136295661330223
0	5260	0.004636344034224749
0	5366	0.018927443772554398
0	5390	0.004288930911570787
0	5430	0.007153161335736513
0	5506	0.013600247912108898
0	5582	0.013599599711596966
0	5652	0.01252071838825941
0	5724	0.012863421812653542
0	5820	0.017138775438070297
0	5928	0.019264157861471176
0	6014	0.015310300514101982
0	6172	0.028060952201485634
0	6260	0.015575956553220749
0	6234	-0.00458176713436842
0	6238	0.0007018528413027525
0	6070	-0.029330633580684662
0	5984	-0.014961726032197475
0	5726	-0.044752299785614014
0	5432	-0.050918497145175934
0	5222	-0.036387160420417786
0	4926	-0.05138115584850311
0	4806	-0.020924637094140053
0	4694	-0.019706513732671738
0	4672	-0.003947935067117214
0	4734	0.011343399994075298
0	4786	0.009513819590210915
0	4920	0.02451428771018982
0	4986	0.012077147141098976
0	5050	0.011715746484696865
0	5140	0.016481705009937286
0	5166	0.00476411497220397
0	5234	0.012467151507735252
0	5264	0.005504654720425606
0	5290	0.004774380009621382
0	5372	0.015070573426783085
0	5388	0.0029430158901959658
0	5444	0.01031282264739275
0	5436	-0.0014751438284292817
0	5460	0.004433278925716877
0	5516	0.010367298498749733
0	5508	-0.0014848177088424563
0	5534	0.004840811714529991
0	5518	-0.0029908032156527042
0	5506	-0.0022535212337970734
0	5516	0.0018865313613787293
0	5472	-0.008338597603142262
0	5494	0.004185108467936516
0	5494	0.0
0	5500	0.0011466429568827152
0	5528	0.005348683334887028
0	5532	0.0007626116857863963
0	5572	0.007596859708428383
0	5510	-0.011718306690454483
0	5538	0.005265071056783199
0	5574	0.006732831709086895
0	5550	-0.004465172067284584
0	5568	0.0033330866135656834
0	5538	-0.005533013492822647
0	5548	0.001838100142776966
0	5588	0.007330034859478474
0	5546	-0.007675532251596451
0	5534	-0.002187944483011961
0	5518	-0.0029119497630745173
0	5642	0.022532889619469643
0	5684	0.007615870330482721
0	5656	-0.005067689809948206
0	5666	0.0018069676589220762
0	5614	-0.00938368495553732
0	5612	-0.00036052492214366794
0	5512	-0.018009798601269722
0	5458	-0.009725524112582207
0	5500	0.00756656751036644
0	5480	-0.0036038632970303297
0	5532	0.009372183121740818
0	5470	-0.011172781698405743
0	5548	0.014059965498745441
0	5564	0.0028827788773924112
0	6008	0.07996350526809692
0	6972	0.17308038473129272
0	8191	0.21695281565189362
1	6346	-0.3232588768005371
0	4624	-0.30028074979782104
0	4888	0.046291157603263855
0	5016	0.02252609096467495
0	5084	0.012003742158412933
0	5152	0.012038451619446278
0	5252	0.017745284363627434
0	5282	0.005333554465323687
0	5338	0.009971095249056816
0	5410	0.012835978530347347
0	5446	0.00642478559166193
0	5526	0.014285799115896225
0	5570	0.00785756390541792
0	5656	0.015353213995695114
0	5728	0.012852782383561134
0	5758	0.005353923887014389
0	5920	0.02889365889132023
0	6050	0.023151308298110962
0	6114	0.011368144303560257
0	6276	0.028690339997410774
0	6208	-0.011988786980509758
0	6174	-0.005968088284134865
0	6056	-0.020631415769457817
0	5884	-0.029972292482852936
0	5678	-0.03582380339503288
0	5386	-0.05071822181344032
0	5182	-0.03546654060482979
0	4960	-0.038681574165821075
0	4772	-0.032957978546619415
0	4746	-0.004617379046976566
0	4700	-0.008339275605976582
0	4792	0.01684611290693283
0	4816	0.004390136804431677
0	4900	0.015372227877378464
0	4962	0.011354202404618263
0	5038	0.0139284273609519
0	5152	0.02090720273554325
0	5194	0.0077073643915355206
0	5252	0.010649235919117928
0	5342	0.0165333803743124
0	5362	0.0036756147164851427
0	5452	0.01654878258705139
0	5464	0.002207505516707897
0	5478	0.002577098086476326
0	5492	0.0025799160357564688
0	5518	0.00479822838678956
0	5562	0.00813208520412445
0	5520	-0.00777960242703557
0	5524	0.0007433469872921705
0	5532	0.0014921475667506456
0	5540	0.0014990817289799452
0	5498	-0.00790315493941307
0	5492	-0.0011338297044858336
0	5508	0.0030343257822096348
0	5492	-0.0030415551736950874
0	5526	0.006470931693911552
0	5510	-0.0030424422584474087
0	5490	-0.003795162308961153
0	5514	0.004538978450000286
0	5508	-0.0011294613359495997
0	5534	0.00487104244530201
0	5524	-0.0018637707689777017
0	5492	-0.005937066860496998
0	5516	0.004434261936694384
0	5580	0.011780008673667908
0	5690	0.020170409232378006
0	5650	-0.00730558019131422
0	5648	-0.0003641748917289078
0	5588	-0.010895224288105965
0	5488	-0.018121851608157158
0	5510	0.003983294125646353
0	5468	-0.007597684394568205
0	5456	-0.0021705576218664646
0	5484	0.005064878612756729
0	5480	-0.0007235279190354049
0	5542	0.011215494014322758
0	5576	0.0061495425179600716
0	5924	0.06293705850839615
0	6500	0.10391859710216522
0	7268	0.13774961233139038
0	7232	-0.006390683352947235
1	4604	-0.4618953764438629
0	4832	0.040284112095832825
0	5094	0.04647202789783478
0	5194	0.017780939117074013
0	5224	0.0053437198512256145
0	5316	0.016416845843195915
0	5338	0.003930302802473307
0	5424	0.015377829782664776
0	5436	0.0021468952763825655
0	5446	0.0017898478545248508
0	5552	0.018982354551553726
0	5562	0.00179048883728683
0	5650	0.015749722719192505
0	5684	0.006080259568989277
0	5748	0.011438102461397648
0	5864	0.020724400877952576
0	5956	0.01641567423939705
0	6068	0.019947756081819534
0	6174	0.018825480714440346
0	6252	0.013796682469546795
0	6240	-0.0021133210975676775
0	6098	-0.02489481121301651
0	6028	-0.012226220220327377
0	5788	-0.04178612679243088
0	5572	-0.037540409713983536
0	5286	-0.049697645008563995
0	5034	-0.0438632108271122
0	4890	-0.025194792076945305
0	4708	-0.03214525431394577
0	4722	0.0025105501990765333
0	4706	-0.002912904368713498
0	4768	0.01128052081912756
0	4840	0.01310504600405693
0	4868	0.0051042730920016766
0	4946	0.014247269369661808
0	5018	0.013173623010516167
0	5130	0.02052961476147175
0	5176	0.008442535996437073
0	5256	0.01470498088747263
0	5334	0.014353185892105103
0	5376	0.007733951788395643
0	5432	0.010323087684810162
0	5486	0.00996236503124237
0	5496	0.0018467449117451906
0	5558	0.011463084258139133
0	5524	-0.006293576676398516
0	5554	0.005564830265939236
0	5512	-0.00781017541885376
0	5480	-0.00597118865698576
0	5480	0.0
0	5448	-0.006026138085871935
0	5502	0.010219917632639408
0	5464	-0.007218936923891306
0	5500	0.0068635051138699055
0	5540	0.007640100549906492
0	5466	-0.014137065969407558
0	5514	0.009159489534795284
0	5506	-0.0015219348715618253
0	5530	0.004548038821667433
0	5546	0.0030163638293743134
0	5494	-0.009752681478857994
0	5530	0.006718758028000593
0	5578	0.008916077204048634
0	5690	0.020709548145532608
0	5664	-0.004783339332789183
0	5634	-0.005495042074471712
0	5626	-0.001459853956475854
0	5548	-0.014190763235092163
0	5530	-0.0032674202229827642
0	5484	-0.00833625253289938
0	5470	-0.00253482349216938
0	5496	0.004704860504716635
0	5476	-0.003617726732045412
0	5508	0.005788711830973625
0	5522	0.0025323783047497272
0	5512	-0.0018092342652380466
0	6054	0.09806760400533676
0	6650	0.10751394927501678
0	7914	0.22646647691726685
1	6880	-0.18260379135608673
0	4514	-0.4144188165664673
0	4840	0.05741390585899353
0	5066	0.03995756804943085
0	5098	0.005671010352671146
0	5230	0.023448601365089417
0	5256	0.004627157934010029
0	5342	0.015324304811656475
0	5356	0.0024972055107355118
0	5402	0.008212428539991379
0	5506	0.018581382930278778
0	5520	0.002501936163753271
0	5586	0.011793014593422413
0	5620	0.0060731638222932816
0	5690	0.01250044722110033
0	5816	0.02250080369412899
0	5876	0.010704982094466686
0	6052	0.03135615587234497
0	6168	0.02061440423130989
0	6254	0.015227168798446655
0	6292	0.006699655670672655
0	6232	-0.01052840892225504
0	6162	-0.012228640727698803
0	5970	-0.03341183438897133
0	5714	-0.04442182555794716
0	5458	-0.04436895623803139
0	5152	-0.053054384887218475
0	4958	-0.03370591253042221
0	4800	-0.027626562863588333
0	4756	-0.007777332328259945
0	4706	-0.009005438536405563
0	4738	0.005839700344949961
0	4836	0.017859745770692825
0	4906	0.012757271528244019
0	4980	0.01349937915802002
0	5014	0.006206871476024389
0	5092	0.014258033595979214
0	5152	0.010978689417243004
0	5214	0.0113578075543046
0	5296	0.015034652315080166
0	5354	0.010641160421073437
0	5414	0.011018339544534683
0	5454	0.0073503293097019196
0	5478	0.004413766320794821
0	5532	0.009939626790583134
0	5526	-0.001105474540963769
0	5588	0.011443618685007095
0	5568	-0.003698042593896389
0	5522	-0.00853094644844532
0	5536	0.0026067851576954126
0	5510	-0.004862843081355095
0	5536	0.004886666778475046
0	5458	-0.014724204316735268
0	5484	0.004929907154291868
0	5478	-0.0011411762097850442
0	5458	-0.003809620626270771
0	5524	0.012571747414767742
0	5498	-0.004940836690366268
0	5524	0.004923993721604347
0	5480	-0.008295000530779362
0	5506	0.004879391752183437
0	5478	-0.005228562746196985
0	5502	0.004461077041924
0	5546	0.008145030587911606
0	5546	0.0
0	5534	-0.002204963704571128
0	5542	0.0014653088292106986
0	5502	-0.007306469604372978
0	5606	0.018956424668431282
0	5668	0.011274093762040138
0	5684	0.0029028980061411858
0	5652	-0.005794232245534658
0	5646	-0.0010848601814359426
0	5636	-0.0018060103757306933
0	5522	-0.020568953827023506
0	5514	-0.001443522167392075
0	5502	-0.0021654395386576653
0	5472	-0.005416400730609894
0	5502	0.005419532302767038
0	5480	-0.003974802326411009
0	5514	0.006144948303699493
0	5546	0.005783341825008392
0	5878	0.05999855324625969
0	6314	0.07859443128108978
0	7638	0.23748311400413513
0	7586	-0.009208211675286293
1	4848	-0.4788331389427185
0	4842	-0.001053457148373127
0	4952	0.01938781514763832
0	5058	0.018745800480246544
0	5072	0.0024820349644869566
0	5228	0.027728073298931122
0	5258	0.00534023204818368
0	5328	0.012478607706725597
0	5374	0.008210863918066025
0	5442	0.0121502336114645
0	5512	0.012514451518654823
0	5532	0.003576196962967515
0	5634	0.01823534443974495
0	5686	0.009294898249208927
0	5750	0.011438648216426373
0	5900	0.02679879404604435
0	5956	0.009990128688514233
0	6088	0.0235048308968544
0	6222	0.02379712089896202
0	6234	0.0021222911309450865
0	6248	0.0024655412416905165
0	6130	-0.02069038152694702
0	6036	-0.016419021412730217
0	5812	-0.03900491073727608
0	5424	-0.06743213534355164
0	5182	-0.04208012670278549
0	4940	-0.04216909781098366
0	4774	-0.02908436954021454
0	4668	-0.018740495666861534
0	4640	-0.005038508214056492
0	4680	0.00732734939083457
0	4736	0.010268823243677616
0	4818	0.015046239830553532
0	4902	0.015425864607095718
0	4984	0.015072974376380444
0	5064	0.014713275246322155
0	5094	0.005523031111806631
0	5168	0.013637200929224491
0	5226	0.010699133388698101
0	5306	0.014770866371691227
0	5338	0.0059132962487638
0	5354	0.002959820441901684
0	5412	0.010741138830780983
0	5436	0.004450708627700806
0	5482	0.008543726988136768
0	5522	0.007441675756126642
0	5494	-0.005221412982791662
0	5536	0.007854675874114037
0	5496	-0.007506474386900663
0	5492	-0.0007540719816461205
0	5524	0.0060608359053730965
0	5508	-0.0030443333089351654
0	5530	0.0042025367729365826
0	5488	-0.008048958145081997
0	5484	-0.000768157304264605
0	5502	0.0034553809091448784
0	5472	-0.0057471999898552895
0	5516	0.0084006879478693
0	5478	-0.007221039850264788
0	5526	0.009074753150343895
0	5530	0.0007520305225625634
0	5532	0.00037402287125587463
0	5576	0.008187875151634216
0	5534	-0.0077791218645870686
0	5554	0.0036899461410939693
0	5520	-0.006250995676964521
0	5524	0.0007333618123084307
0	5574	0.009142996743321419
0	5670	0.017511216923594475
0	5688	0.0032745134085416794
0	5654	-0.006170897278934717
0	5644	-0.0018115066923201084
0	5608	-0.0065100244246423244
0	5514	-0.01697833649814129
0	5458	-0.010110005736351013
0	5492	0.006139105185866356
0	5478	-0.0025283233262598515
0	5502	0.004334685858339071
0	5486	-0.002890382194891572
0	5538	0.009394308552145958
0	5562	0.004334633704274893
0	5946	0.06933827698230743
0	6782	0.15055829286575317
0	8191	0.25185900926589966
1	6450	-0.30627143383026123
0	4704	-0.3054209351539612
0	4972	0.04709934815764427
0	5038	0.01163316797465086
0	5152	0.020150242373347282
0	5166	0.002479353453963995
0	5286	0.02129686065018177
0	5322	0.0063982936553657055
0	5374	0.009253492578864098
0	5444	0.012471567839384079
0	5470	0.004634773824363947
0	5538	0.0121277691796422
0	5622	0.014979759231209755
0	5650	0.004990345798432827
0	5782	0.02351529896259308
0	5836	0.009613501839339733
0	5972	0.02419053576886654
0	6066	0.01668846420943737
0	6168	0.01806364767253399
0	6286	0.020828306674957275
0	6272	-0.002459981245920062
0	6174	-0.01713816076517105
0	6102	-0.01254144124686718
0	5866	-0.04095965996384621
0	5656	-0.03637056425213814
0	5352	-0.05259909853339195
0	5060	-0.0505770742893219
0	4850	-0.036479655653238297
0	4658	-0.03356584534049034
0	4654	-0.0007080523646436632
0	4706	0.009400875307619572
0	4698	-0.0014616500120609999
0	4824	0.023021826520562172
0	4838	0.0025602886453270912
0	4968	0.02380312979221344
0	5010	0.0076988874934613705
0	5090	0.014678539708256721
0	5178	0.016165772452950478
0	5240	0.011399573646485806
0	5282	0.007728638593107462
0	5342	0.011051895096898079
0	5368	0.004792921245098114
0	5440	0.013286584056913853
0	5454	0.0025863980408757925
0	5482	0.005179047118872404
0	5466	-0.0029649396892637014
0	5490	0.004457596689462662
0	5518	0.005216095596551895
0	5516	-0.00037385040195658803
0	5546	0.005630630534142256
0	5500	-0.008673789910972118
0	5504	0.0007579202647320926
0	5502	-0.00038057059282436967
0	5528	0.004966318141669035
0	5538	0.0019142419332638383
0	5506	-0.006130189634859562
0	5520	0.0026793230790644884
0	5516	-0.000763281132094562
0	5536	0.0038003064692020416
0	5564	0.005291005130857229
0	5546	-0.0033819752279669046
0	5606	0.011214254423975945
0	5564	-0.007805820554494858
0	5572	0.0014800380449742079
0	5566	-0.001105026574805379
0	5536	-0.00550492387264967
0	5616	0.01463271863758564
0	5700	0.015315238386392593
0	5722	0.003998449072241783
0	5704	-0.0032619331032037735
0	5642	-0.011206979863345623
0	5658	0.0028869055677205324
0	5554	-0.018732214346528053
0	5536	-0.0032398963812738657
0	5524	-0.0021588685922324657
0	5560	0.006474975496530533
0	5494	-0.011864102445542812
0	5556	0.011144798249006271
0	5552	-0.0007188555900938809
0	5622	0.012577259913086891
0	5904	0.050645340234041214
0	6426	0.09352157264947891
0	7428	0.1785353571176529
0	7382	-0.008103537373244762
1	5044	-0.4074353575706482
0	4766	-0.04858554154634476
0	5038	0.047742750495672226
0	5074	0.006336763966828585
0	5220	0.02576591819524765
0	5270	0.008840378373861313
0	5284	0.0024796021170914173
0	5394	0.01951277069747448
0	5406	0.0021313377656042576
0	5462	0.009955555200576782
0	5510	0.008538899011909962
0	5526	0.0028472451958805323
0	5590	0.0113896569237113
0	5626	0.006407670211046934
0	5722	0.017094627022743225
0	5790	0.012108693830668926
0	5890	0.017797816544771194
0	5990	0.01777167059481144
0	6126	0.024122029542922974
0	6240	0.020151786506175995
0	6230	-0.0017603981541469693
0	6230	0.0
0	6148	-0.014319642446935177
0	6008	-0.024355448782444
0	5796	-0.03678469359874725
0	5552	-0.04227743670344353
0	5228	-0.05616159364581108
0	4988	-0.041764311492443085
0	4834	-0.027024181559681892
0	4724	-0.019600389525294304
0	4680	-0.007965915836393833
0	4748	0.01233806274831295
0	4770	0.003992160782217979
0	4874	0.018902676180005074
0	4940	0.012010481208562851
0	5004	0.011666342616081238
0	5084	0.014606536366045475
0	5182	0.01791481301188469
0	5286	0.019036229699850082
0	5348	0.01135683711618185
0	5412	0.011731351725757122
0	5450	0.006969663314521313
0	5468	0.0033029543701559305
0	5534	0.012119876220822334
0	5522	-0.0022048556711524725
0	5546	0.004415119532495737
0	5528	-0.0033163013868033886
0	5510	-0.0033236907329410315
0	5546	0.006667078472673893
0	5490	-0.010408276692032814
0	5496	0.0011203783797100186
0	5512	0.0030013881623744965
0	5468	-0.008291040547192097
0	5478	0.0018924102187156677
0	5464	-0.002658261451870203
0	5480	0.003044410375878215
0	5446	-0.006472327746450901
0	5518	0.01368717197328806
0	5472	-0.008715311996638775
0	5472	0.0
0	5602	0.02441650815308094
0	5690	0.016433240845799446
0	5662	-0.0051982770673930645
0	5610	-0.009600945748388767
0	5580	-0.00551403034478426
0	5554	-0.00476016104221344
0	5468	-0.01569247618317604
0	5458	-0.0018204546067863703
0	5458	0.0
0	5444	-0.0025417266879230738
0	5490	0.008346538990736008
0	5496	0.0010881655616685748
0	5556	0.01087863091379404
0	5534	-0.00398671068251133
0	6142	0.11017818748950958
0	6828	0.12384907156229019
0	7850	0.183097243309021
1	6068	-0.31488919258117676
0	4610	-0.2567926049232483
0	5002	0.0694231316447258
0	5090	0.015629811212420464
0	5202	0.019940415397286415
0	5238	0.006421233061701059
0	5330	0.01643228717148304
0	5372	0.007508312817662954
0	5410	0.006796961650252342
0	5474	0.011452293954789639
0	5482	0.0014312976272776723
0	5554	0.012884445488452911
0	5600	0.008227705024182796
0	5666	0.01179596595466137
0	5758	0.016436593607068062
0	5808	0.008929315954446793
0	5966	0.02819213457405567
0	6072	0.018873747438192368
0	6168	0.01704343780875206
0	6266	0.017335519194602966
0	6272	0.0010563875548541546
0	6236	-0.006308190058916807
0	6064	-0.030002791434526443
0	5780	-0.049361541867256165
0	5548	-0.04025587812066078
0	5248	-0.05203936621546745
0	5030	-0.037882737815380096
0	4804	-0.03938791900873184
0	4700	-0.018267406150698662
0	4706	0.0010671853087842464
0	4706	0.0
0	4778	0.013157733716070652
0	4836	0.010588450357317924
0	4910	0.013523062691092491
0	5032	0.02231925167143345
0	5074	0.007691650185734034
0	5154	0.014665444381535053
0	5238	0.015415295027196407
0	5284	0.00844863522797823
0	5392	0.019851237535476685
0	5418	0.004781404044479132
0	5468	0.00919861625880003
0	5470	0.0003681388043332845
0	5524	0.009947682730853558
0	5548	0.004425050690770149
0	5508	-0.007384615484625101
0	5560	0.009617756120860577
0	5498	-0.011496099643409252
0	5530	0.00595459621399641
0	5526	-0.00074728176696226
0	5490	-0.006756671704351902
0	5486	-0.0007544322870671749
0	5460	-0.004927041940391064
0	5502	0.00798955000936985
0	5458	-0.008384785614907742
0	5470	0.00228806771337986
0	5514	0.008377760648727417
0	5480	-0.00645389873534441
0	5510	0.005670363083481789
0	5522	0.0022566288243979216
0	5526	0.00074838160071522
0	5512	-0.002606008667498827
0	5484	-0.00518838781863451
0	5550	0.01218101754784584
0	5642	0.01691300794482231
0	5698	0.010256536304950714
0	5634	-0.011677268892526627
0	5632	-0.00036385247949510813
0	5594	-0.00689671840518713
0	5512	-0.014854533597826958
0	5486	-0.0047065638937056065
0	5482	-0.0007237897370941937
0	5494	0.0021711860317736864
0	5530	0.006512614898383617
0	5490	-0.007235977798700333
0	5514	0.0043431054800748825
0	5524	0.001809561625123024
0	5992	0.0847058817744255
0	6836	0.15230624377727509
0	8191	0.24261415004730225
1	6862	-0.23423317074775696
0	4544	-0.4052754342556
0	4900	0.06258606910705566
0	4988	0.01552165113389492
0	5094	0.018753206357359886
0	5158	0.011347047984600067
0	5244	0.015275762416422367
0	5282	0.006760563235729933
0	5312	0.005343561060726643
0	5398	0.015336237847805023
0	5428	0.005353796761482954
0	5506	0.013927990570664406
0	5560	0.009642800316214561
0	5632	0.012851252220571041
0	5694	0.011060960590839386
0	5742	0.00856067705899477
0	5884	0.02531871199607849
0	5976	0.016379335895180702
0	6080	0.018478048965334892
0	6202	0.021613961085677147
0	6296	0.01658579707145691
0	6300	0.0007024321821518242
0	6174	-0.02202117070555687
0	6072	-0.017756320536136627
0	5834	-0.04130151867866516
0	5674	-0.027710584923624992
0	5350	-0.05606215447187424
0	5112	-0.04122282937169075
0	4878	-0.040736980736255646
0	4716	-0.028526652604341507
0	4704	-0.0021570834796875715
0	4642	-0.011290929280221462
0	4732	0.016380315646529198
0	4782	0.009109459817409515
0	4842	0.010945044457912445
0	4972	0.023750655353069305
0	5034	0.011340079829096794
0	5092	0.010622061789035797
0	5212	0.022002199664711952
0	5256	0.008072406984865665
0	5306	0.009181163273751736
0	5372	0.012128191068768501
0	5376	0.0007356457062996924
0	5418	0.00773300277069211
0	5428	0.0018436125246807933
0	5500	0.01329574454575777
0	5470	-0.005548157729208469
0	5542	0.013349649496376514
0	5518	-0.0044618514366447926
0	5538	0.0037312039639800787
0	5546	0.0014986698515713215
0	5516	-0.005646456498652697
0	5504	-0.002269746968522668
0	5500	-0.0007597918156534433
0	5518	0.0034314910881221294
0	5486	-0.006112703122198582
0	5472	-0.002677512587979436
0	5486	0.002675432013347745
0	5510	0.0045755538158118725
0	5464	-0.008734730072319508
0	5532	0.01285136491060257
0	5496	-0.006768359337002039
0	5552	0.010472509078681469
0	5510	-0.007814438082277775
0	5478	-0.005927097052335739
0	5642	0.030257558450102806
0	5678	0.006614647805690765
0	5694	0.0029282935429364443
0	5630	-0.011670313775539398
0	5580	-0.009094326756894588
0	5558	-0.003993658348917961
0	5474	-0.015225298702716827
0	5482	0.0014491353649646044
0	5460	-0.0039825732819736
0	5506	0.008325088769197464
0	5540	0.006150431931018829
0	5502	-0.006872355006635189
0	5542	0.007232662755995989
0	5910	0.06654049456119537
0	6460	0.09921470284461975
0	8191	0.31053411960601807
1	7182	-0.17819194495677948
0	4510	-0.4672989845275879
0	4886	0.06614089757204056
0	4974	0.015535716898739338
0	5062	0.015585611574351788
0	5182	0.021306440234184265
0	5222	0.007114357780665159
0	5316	0.0167449489235878
0	5398	0.014624142087996006
0	5414	0.002854611026123166
0	5486	0.012854770757257938
0	5570	0.014998124912381172
0	5598	0.0049988399259746075
0	5702	0.01855739951133728
0	5762	0.010691946372389793
0	5884	0.02172480709850788
0	5982	0.017429761588573456
0	6116	0.023791911080479622
0	6274	0.027972688898444176
0	6294	0.003526404034346342
0	6286	-0.0014044862473383546
0	6242	-0.0076881409622728825
0	6056	-0.03235664218664169
0	5934	-0.021150080487132072
0	5608	-0.05637634918093681
0	5260	-0.060157306492328644
0	5026	-0.04050708934664726
0	4788	-0.04132255166769028
0	4692	-0.016776861622929573
0	4644	-0.008475723676383495
0	4668	0.0043282234109938145
0	4694	0.00476085813716054
0	4760	0.012071697972714901
0	4810	0.00915225688368082
0	4914	0.019055763259530067
0	5000	0.015771906822919846
0	5084	0.0154222771525383
0	5166	0.015067804604768753
0	5226	0.01103536132723093
0	5254	0.005155271850526333
0	5358	0.01916697435081005
0	5382	0.004426628351211548
0	5392	0.0018465628381818533
0	5484	0.017009947448968887
0	5456	-0.0051839048974215984
0	5496	0.007419590372592211
0	5518	0.004090587608516216
0	5506	-0.002237664768472314
0	5528	0.004117999691516161
0	5504	-0.004513370804488659
0	5516	0.002267916454002261
0	5510	-0.0011394857428967953
0	5470	-0.0076319370418787
0	5510	0.007660487201064825
0	5482	-0.0053768944926559925
0	5516	0.006534356623888016
0	5516	0.0
0	5492	-0.004590548574924469
0	5560	0.012948434799909592
0	5500	-0.011362489312887192
0	5526	0.004897282458841801
0	5538	0.0022481733467429876
0	5570	0.005963696166872978
0	5688	0.02188102714717388
0	5720	0.005901808384805918
0	5694	-0.004771576263010502
0	5652	-0.007675344590097666
0	5572	-0.014569295570254326
0	5560	-0.00218002125620842
0	5532	-0.0050764488987624645
0	5502	-0.005429930053651333
0	5534	0.005786897614598274
0	5520	-0.002529450226575136
0	5532	0.002166429767385125
0	5528	-0.0007219348335638642
0	5562	0.0061337887309491634
0	5988	0.07682227343320847
0	7154	0.20967704057693481
0	8162	0.17949144542217255
1	6246	-0.33592426776885986
0	4536	-0.29851266741752625
0	4908	0.06531204283237457
0	5014	0.01867622137069702
0	5084	0.012366470880806446
0	5214	0.0230240635573864
0	5226	0.0021286660339683294
0	5320	0.01670319214463234
0	5372	0.009250803850591183
0	5414	0.007477123755961657
0	5506	0.01639266312122345
0	5544	0.006770641542971134
0	5664	0.021378686651587486
0	5670	0.0010681351413950324
0	5754	0.014945023693144321
0	5826	0.012805008329451084
0	5934	0.019195448607206345
0	6038	0.018458262085914612
0	6174	0.02408272959291935
0	6272	0.017292287200689316
0	6296	0.004217185080051422
0	6228	-0.011895460076630116
0	6142	-0.014980838634073734
0	5898	-0.04235424846410751
0	5630	-0.04641871526837349
0	5408	-0.03842958062887192
0	5132	-0.047810424119234085
0	4910	-0.038551926612854004
0	4706	-0.03564854711294174
0	4652	-0.009572884067893028
0	4692	0.007241217419505119
0	4730	0.006944275461137295
0	4804	0.013507099822163582
0	4858	0.00986277312040329
0	4988	0.02376628667116165
0	5002	0.0025609442964196205
0	5098	0.017583491280674934
0	5180	0.015030979178845882
0	5220	0.007338461931794882
0	5330	0.020199548453092575
0	5380	0.00918633583933115
0	5442	0.01139985304325819
0	5476	0.00625544274225831
0	5514	0.006999447476118803
0	5536	0.004056197125464678
0	5540	0.0007384797208942473
0	5568	0.005178472492843866
0	5528	-0.007414547726511955
0	5538	0.001859496464021504
0	5530	-0.001493484596721828
0	5470	-0.011253094300627708
0	5508	0.007163953967392445
0	5474	-0.0064389873296022415
0	5474	0.0
0	5476	0.0003813931252807379
0	5480	0.0007635336369276047
0	5502	0.004197511821985245
0	5502	0.0
0	5474	-0.005309801548719406
0	5482	0.0015097567811608315
0	5508	0.004881223663687706
0	5686	0.03324782848358154
0	5678	-0.0014854426262900233
0	5658	-0.0036936260294169188
0	5626	-0.00588083965703845
0	5596	-0.005491823423653841
0	5552	-0.008025584742426872
0	5466	-0.01564318872988224
0	5446	-0.0036316534969955683
0	5464	0.0032640232238918543
0	5468	0.0007247515022754669
0	5544	0.013762963004410267
0	5536	-0.0014478415250778198
0	5464	-0.0130258584395051
0	5992	0.09555178135633469
0	6954	0.17361487448215485
0	8191	0.2213619351387024
0	7482	-0.12492144107818604
1	4602	-0.5016809701919556
0	4690	0.015412908047437668
0	4856	0.029217636212706566
0	4958	0.018017912283539772
0	5004	0.008152125403285027
0	5088	0.014927937649190426
0	5248	0.028499333187937737
0	5254	0.001070173573680222
0	5326	0.012859363108873367
0	5374	0.008581900969147682
0	5438	0.011451269499957561
0	5542	0.01861230842769146
0	5606	0.011449630372226238
0	5682	0.01358849462121725
0	5772	0.016092022880911827
0	5852	0.014296010136604309
0	6036	0.03284287452697754
0	6126	0.016025355085730553
0	6270	0.02556016482412815
0	6294	0.0042420062236487865
0	6284	-0.0017589222406968474
0	6204	-0.01400257833302021
0	5958	-0.042872827500104904
0	5792	-0.028848325833678246
0	5514	-0.048242948949337006
0	5212	-0.05241448059678078
0	4962	-0.04345281794667244
0	4756	-0.03602007403969765
0	4636	-0.02125486359000206
0	4600	-0.006513165310025215
0	4658	0.010679039172828197
0	4668	0.00184058106970042
0	4792	0.022826286032795906
0	4860	0.012522558681666851
0	4920	0.011055967770516872
0	4998	0.014380177482962608
0	5062	0.011805649846792221
0	5180	0.021791590377688408
0	5216	0.006651311181485653
0	5266	0.009244195185601711
0	5350	0.015540589578449726
0	5350	0.0
0	5430	0.014826162718236446
0	5464	0.006307977717369795
0	5488	0.004458701238036156
0	5542	0.01004975289106369
0	5520	-0.004102232865989208
0	5554	0.006360212340950966
0	5560	0.001126407994888723
0	5498	-0.011691495776176453
0	5540	0.007959871552884579
0	5502	-0.007235798519104719
0	5520	0.0034428236540406942
0	5494	-0.004986893385648727
0	5502	0.0015373578062281013
0	5528	0.004996796604245901
0	5486	-0.00805544201284647
0	5538	0.009940104559063911
0	5526	-0.0022824970073997974
0	5548	0.0041610971093177795
0	5534	-0.002632238669320941
0	5528	-0.0011219426523894072
0	5580	0.009671660140156746
0	5510	-0.012956245802342892
0	5554	0.008111395873129368
0	5706	0.02791244350373745
0	5698	-0.0014627367490902543
0	5724	0.004735538270324469
0	5652	-0.01307062990963459
0	5630	-0.003983294125646353
0	5588	-0.007587801665067673
0	5492	-0.0173187255859375
0	5512	0.00360498926602304
0	5474	-0.006846106611192226
0	5504	0.005404496565461159
0	5516	0.002161590848118067
0	5526	0.0018016069661825895
0	5592	0.011890178546309471
0	5552	-0.007204524241387844
0	6128	0.10375013947486877
0	7464	0.23973587155342102
0	8191	0.12897084653377533
1	6748	-0.2519834339618683
0	4476	-0.39393150806427
0	4832	0.062090493738651276
0	4960	0.022411972284317017
0	4968	0.0014054073253646493
0	5082	0.020087989047169685
0	5182	0.017668364569544792
0	5240	0.010268455371260643
0	5354	0.020219577476382256
0	5402	0.008522575721144676
0	5454	0.00923968106508255
0	5508	0.009602218866348267
0	5562	0.009602333419024944
0	5654	0.01635875552892685
0	5686	0.0056917560286819935
0	5844	0.02810504473745823
0	5916	0.012798256240785122
0	6052	0.024136725813150406
0	6154	0.01805746555328369
0	6264	0.01940890960395336
0	6352	0.01545694563537836
0	6298	-0.009438524022698402
0	6214	-0.014611998572945595
0	6004	-0.03638022392988205
0	5772	-0.0400785431265831
0	5540	-0.040021851658821106
0	5262	-0.047971561551094055
0	4992	-0.04666893556714058
0	4714	-0.048368293792009354
0	4682	-0.005657808855175972
0	4630	-0.009388089179992676
0	4644	0.0025601950474083424
0	4746	0.01863376796245575
0	4832	0.015719054266810417
0	4914	0.014999634586274624
0	5034	0.021957913413643837
0	5058	0.004392868839204311
0	5152	0.01721842959523201
0	5188	0.006597836967557669
0	5286	0.017979012802243233
0	5310	0.004406149033457041
0	5366	0.010290082544088364
0	5414	0.008827748708426952
0	5460	0.008467608131468296
0	5538	0.014375230297446251
0	5526	-0.0022135863546282053
0	5534	0.0014786154497414827
0	5570	0.00666946591809392
0	5532	-0.007061009760946035
0	5566	0.006342179607599974
0	5546	-0.003746955655515194
0	5516	-0.0056488667614758015
0	5522	0.0011353457812219858
0	5512	-0.001900538569316268
0	5544	0.006100738421082497
0	5534	-0.0019092471338808537
0	5512	-0.004200504161417484
0	5546	0.006481376010924578
0	5520	-0.004938959609717131
0	5510	-0.0018899543210864067
0	5554	0.008272645995020866
0	5502	-0.009720474481582642
0	5560	0.010784410871565342
0	5506	-0.009990256279706955
0	5588	0.0151075953617692
0	5714	0.02311841771006584
0	5692	-0.00401983130723238
0	5662	-0.005460502579808235
0	5608	-0.009798584505915642
0	5534	-0.013393664732575417
0	5532	-0.0003614501329138875
0	5450	-0.014799663797020912
0	5518	0.012266691774129868
0	5498	-0.003605596022680402
0	5488	-0.001802386250346899
0	5558	0.01262049563229084
0	5522	-0.006489292718470097
0	5546	0.004326506983488798
0	6166	0.11178421974182129
0	7274	0.1990109384059906
0	8191	0.16303767263889313
1	6226	-0.3439744710922241
0	4446	-0.31030455231666565
0	4852	0.07122265547513962
0	4962	0.01937154121696949
0	5034	0.01272302120923996
0	5152	0.02091320976614952
0	5222	0.012432582676410675
0	5306	0.014947771094739437
0	5384	0.01389771606773138
0	5350	-0.006062515079975128
0	5460	0.019637832418084145
0	5520	0.010714221745729446
0	5580	0.010716773569583893
0	5704	0.022138245403766632
0	5746	0.007493264973163605
0	5850	0.01855122111737728
0	5926	0.013543937355279922
0	6092	0.029536491259932518
0	6196	0.01845182105898857
0	6250	0.00954339001327753
0	6280	0.005279552657157183
0	6212	-0.01190900057554245
0	6094	-0.020582232624292374
0	5774	-0.05562347546219826
0	5436	-0.05865509808063507
0	5152	-0.04931897297501564
0	4940	-0.03689458966255188
0	4716	-0.03912048786878586
0	4704	-0.0021135814022272825
0	4642	-0.011087466031312943
0	4734	0.016807951033115387
0	4760	0.004793628118932247
0	4820	0.011040912009775639
0	4962	0.026135290041565895
0	4942	-0.003681026864796877
0	5070	0.02357187494635582
0	5154	0.0154768330976367
0	5210	0.010322200134396553
0	5328	0.021763186901807785
0	5384	0.010331849567592144
0	5414	0.005533762276172638
0	5484	0.01291576400399208
0	5500	0.002952828537672758
0	5574	0.013663556426763535
0	5560	-0.0025870671961456537
0	5554	-0.0011100147385150194
0	5562	0.0014827261911705136
0	5544	-0.003343653166666627
0	5568	0.004473383072763681
0	5524	-0.00823332741856575
0	5540	0.0030075565446168184
0	5510	-0.005665437318384647
0	5490	-0.003793722717091441
0	5502	0.002284959889948368
0	5484	-0.0034333672374486923
0	5490	0.0011441066162660718
0	5510	0.0038055130280554295
0	5472	-0.007204428780823946
0	5518	0.008679681457579136
0	5528	0.0018772762268781662
0	5698	0.031737733632326126
0	5696	-0.0003711585304699838
0	5670	-0.0047972840256989
0	5642	-0.0051394375041127205
0	5638	-0.0007311633671633899
0	5560	-0.014197479002177715
0	5492	-0.012340600602328777
0	5502	0.001811091206036508
0	5534	0.005785293411463499
0	5482	-0.009389445185661316
0	5548	0.011910348199307919
0	5474	-0.013343270868062973
0	5556	0.014786675572395325
0	5772	0.03893715888261795
0	6534	0.13719841837882996
0	7876	0.24022339284420013
0	7862	-0.002471809508278966
1	4888	-0.5180703401565552
0	4688	-0.03497318923473358
0	4926	0.04183266684412956
0	5022	0.016933009028434753
0	5132	0.019461678341031075
0	5164	0.00567422853782773
0	5288	0.02203008532524109
0	5322	0.0060481722466647625
0	5358	0.006410104222595692
0	5448	0.016037825495004654
0	5474	0.004634856712073088
0	5560	0.015330497175455093
0	5570	0.0017821711953729391
0	5652	0.014610158279538155
0	5724	0.01283193752169609
0	5784	0.010691503062844276
0	5964	0.03205280378460884
0	6066	0.01812860555946827
0	6198	0.023401211947202682
0	6326	0.022606853395700455
0	6268	-0.01019368041306734
0	6206	-0.010848010890185833
0	6066	-0.024399878457188606
0	5884	-0.031612589955329895
0	5636	-0.042992860078811646
0	5366	-0.046762965619564056
0	5052	-0.05444331467151642
0	4800	-0.04387594014406204
0	4708	-0.016181040555238724
0	4672	-0.006451535504311323
0	4686	0.002557669300585985
0	4776	0.016462411731481552
0	4768	-0.0014625407056882977
0	4892	0.022691229358315468
0	4958	0.012087173759937286
0	5022	0.011733359657227993
0	5092	0.01284450851380825
0	5162	0.01285992469638586
0	5278	0.021331634372472763
0	5308	0.005519508384168148
0	5352	0.00810223538428545
0	5428	0.014005258679389954
0	5456	0.005164019297808409
0	5510	0.009966163896024227
0	5542	0.005911038722842932
0	5544	0.00036985441693104804
0	5544	0.0
0	5532	-0.002228191588073969
0	5542	0.0018629836849868298
0	5524	-0.0033670873381197453
0	5508	-0.003008008934557438
0	5462	-0.008689410984516144
0	5434	-0.005314101465046406
0	5488	0.01028976496309042
0	5462	-0.0049668243154883385
0	5482	0.003824871964752674
0	5462	-0.0038220456335693598
0	5468	0.0011436267523095012
0	5500	0.0060735661536455154
0	5482	-0.003399347886443138
0	5554	0.013528409413993359
0	5528	-0.004858843982219696
0	5506	-0.004092160612344742
0	5530	0.004443841055035591
0	5514	-0.002950940513983369
0	5650	0.024997549131512642
0	5686	0.0065916357561945915
0	5704	0.0032839125487953424
0	5620	-0.01527457870543003
0	5592	-0.005080993287265301
0	5588	-0.0007246113964356482
0	5472	-0.020983826369047165
0	5506	0.006148801185190678
0	5516	0.0018079258734360337
0	5504	-0.0021694328170269728
0	5510	0.001084964838810265
0	5494	-0.0028938325121998787
0	5550	0.010131467133760452
0	5526	-0.004341586492955685
0	6052	0.0951622873544693
0	7276	0.22073940932750702
0	8191	0.16327817738056183
1	6704	-0.2611108124256134
0	4434	-0.3956610858440399
0	4772	0.05927640572190285
0	4956	0.0323994979262352
0	4996	0.007065182086080313
0	5144	0.02621309459209442
0	5208	0.011357116512954235
0	5252	0.007821527309715748
0	5324	0.012816328555345535
0	5342	0.003208460984751582
0	5404	0.011063591577112675
0	5514	0.01964086852967739
0	5530	0.0028571258299052715
0	5636	0.018926655873656273
0	5684	0.008571275509893894
0	5746	0.011071362532675266
0	5886	0.02499360404908657
0	5972	0.015328949317336082
0	6174	0.035924095660448074
0	6252	0.013823660090565681
0	6268	0.0028226161375641823
0	6250	-0.0031612778548151255
0	6116	-0.02343326434493065
0	5934	-0.03171413019299507
0	5680	-0.04415164515376091
0	5370	-0.05382785573601723
0	5112	-0.04484538733959198
0	4872	-0.04181694611907005
0	4744	-0.022456271573901176
0	4686	-0.010328431613743305
0	4668	-0.003273481037467718
0	4750	0.015098879113793373
0	4804	0.00992391724139452
0	4908	0.019108982756733894
0	4986	0.014335950836539268
0	5036	0.009190275333821774
0	5084	0.00882850680500269
0	5128	0.00809895433485508
0	5248	0.02210487611591816
0	5296	0.00884607806801796
0	5318	0.0040555982850492
0	5400	0.015124314464628696
0	5410	0.0018457223195582628
0	5468	0.01071309857070446
0	5492	0.004437596071511507
0	5486	-0.0011107134632766247
0	5536	0.009270818904042244
0	5532	-0.000743273354601115
0	5566	0.006335088983178139
0	5528	-0.007107232231646776
0	5540	0.002254565479233861
0	5518	-0.004152301233261824
0	5532	0.002654598793014884
0	5544	0.002283800393342972
0	5464	-0.015263098292052746
0	5516	0.00993466004729271
0	5530	0.002672231523320079
0	5536	0.0011422045063227415
0	5550	0.0026539613027125597
0	5506	-0.008298755623400211
0	5552	0.008631473407149315
0	5548	-0.0007464357768185437
0	5520	-0.0051992423832416534
0	5560	0.0073947180062532425
0	5548	-0.002209537895396352
0	5586	0.006972818169742823
0	5532	-0.009875519201159477
0	5558	0.004741929471492767
0	5548	-0.001819063676521182
0	5490	-0.010531412437558174
0	5620	0.023577207699418068
0	5688	0.012310217134654522
0	5666	-0.003975807689130306
0	5650	-0.00288704433478415
0	5636	-0.0025234015192836523
0	5576	-0.010805229656398296
0	5478	-0.01763901300728321
0	5490	0.002160630887374282
0	5492	0.0003601959615480155
0	5494	0.00036035600351169705
0	5512	0.003243866842240095
0	5500	-0.002162941498681903
0	5542	0.007571114692837
0	5554	0.002163045573979616
0	6106	0.09949411451816559
0	7304	0.21510137617588043
0	8191	0.15757496654987335
1	7118	-0.18766067922115326
0	4472	-0.45853912830352783
0	4728	0.044641558080911636
0	4888	0.028027724474668503
0	4992	0.018288929015398026
0	5030	0.006704343948513269
0	5182	0.026894880458712578
0	5182	0.0
0	5310	0.02274814061820507
0	5336	0.004628283437341452
0	5382	0.008198035880923271
0	5450	0.012131519615650177
0	5510	0.010710524395108223
0	5592	0.014635974541306496
0	5688	0.01713765412569046
0	5772	0.014995447359979153
0	5894	0.021765373647212982
0	5970	0.01353911217302084
0	6132	0.02880256064236164
0	6254	0.021619578823447227
0	6300	0.008114448748528957
0	6290	-0.0017556488746777177
0	6156	-0.023416338488459587
0	5946	-0.03655628114938736
0	5716	-0.03993725776672363
0	5476	-0.041621625423431396
0	5198	-0.0482301190495491
0	4886	-0.054240431636571884
0	4734	-0.02661297470331192
0	4660	-0.013153606094419956
0	4656	-0.0007261988357640803
0	4722	0.01216350682079792
0	4724	0.00036802591057494283
0	4868	0.026498515158891678
0	4956	0.016195524483919144
0	4998	0.007731389719992876
0	5104	0.019516386091709137
0	5122	0.003315690439194441
0	5212	0.01658456213772297
0	5248	0.00663782050833106
0	5286	0.007010380271822214
0	5304	0.00332266790792346
0	5370	0.012194070033729076
0	5420	0.00924590416252613
0	5448	0.0051832012832164764
0	5510	0.011494110338389874
0	5508	-0.0003713790501933545
0	5534	0.004839490167796612
0	5544	0.0018663913942873478
0	5514	-0.005619731266051531
0	5546	0.006022206973284483
0	5532	-0.0026472369208931923
0	5560	0.005319890100508928
0	5530	-0.005721478722989559
0	5506	-0.004589319694787264
0	5556	0.009573898278176785
0	5500	-0.010717292316257954
0	5510	0.0019101223442703485
0	5514	0.0007610252941958606
0	5528	0.0026504776906222105
0	5548	0.0037657690700143576
0	5516	-0.005991686601191759
0	5560	0.00819794274866581
0	5518	-0.007784889545291662
0	5550	0.005907619372010231
0	5596	0.008461274206638336
0	5566	-0.005498063284903765
0	5550	-0.002924047876149416
0	5544	-0.0010936664184555411
0	5510	-0.006184966769069433
0	5566	0.010170846246182919
0	5578	0.0021757788490504026
0	5734	0.028238361701369286
0	5694	-0.007224737666547298
0	5664	-0.005409629084169865
0	5668	0.0007203486165963113
0	5576	-0.01655231975018978
0	5538	-0.006834040861576796
0	5512	-0.004675810690969229
0	5466	-0.008274175226688385
0	5484	0.0032386525999754667
0	5478	-0.0010799525771290064
0	5550	0.012963630259037018
0	5564	0.002520857146009803
0	5588	0.0043205879628658295
0	5956	0.06621643155813217
0	6728	0.13857807219028473
0	8191	0.26070067286491394
0	7394	-0.1397959589958191
1	4768	-0.4555995464324951
0	4776	0.001394092570990324
0	4918	0.024856608361005783
0	5016	0.01721462607383728
0	5114	0.017269635573029518
0	5154	0.0070655979216098785
0	5252	0.017351172864437103
0	5324	0.012773732654750347
0	5364	0.007106689270585775
0	5432	0.012094695121049881
0	5462	0.005339439958333969
0	5550	0.015666818246245384
0	5552	0.00035609788028523326
0	5662	0.019588405266404152
0	5728	0.011758069507777691
0	5796	0.01211192924529314
0	5954	0.028120383620262146
0	6026	0.012792646884918213
0	6212	0.03295982629060745
0	6266	0.009531036950647831
0	6256	-0.0017572118667885661
0	6226	-0.005247354507446289
0	6054	-0.029955241829156876
0	5890	-0.028466785326600075
0	5598	-0.05058525502681732
0	5298	-0.05196094512939453
0	5044	-0.0440673865377903
0	4794	-0.043603383004665375
0	4690	-0.01834527961909771
0	4666	-0.004322506953030825
0	4684	0.003295858157798648
0	4766	0.01502216700464487
0	4796	0.005496250465512276
0	4876	0.01466759480535984
0	4968	0.01688217930495739
0	5008	0.007346638944000006
0	5152	0.026471562683582306
0	5162	0.0018394299549981952
0	5228	0.012152308598160744
0	5336	0.01990220881998539
0	5344	0.0014751075068488717
0	5460	0.021404583007097244
0	5506	0.008492725901305676
0	5486	-0.00369353499263525
0	5564	0.014420410618185997
0	5540	-0.004441538359969854
0	5550	0.001853568130172789
0	5504	-0.008547750301659107
0	5530	0.0048470087349414825
0	5544	0.0026210357900708914
0	5486	-0.010907722637057304
0	5528	0.007937008515000343
0	5526	-0.0003796218952629715
0	5512	-0.0026662605814635754
0	5510	-0.00038181053241714835
0	5478	-0.006112391594797373
0	5522	0.008394917473196983
0	5508	-0.002663014456629753
0	5492	-0.00302972923964262
0	5540	0.009043408557772636
0	5478	-0.01161730382591486
0	5592	0.021255437284708023
0	5702	0.020404882729053497
0	5712	0.001844655373133719
0	5650	-0.011378373950719833
0	5624	-0.0047517516650259495
0	5584	-0.007283055689185858
0	5514	-0.012712017633020878
0	5484	-0.005436423700302839
0	5504	0.0036186869256198406
0	5472	-0.005784038454294205
0	5512	0.007224476430565119
0	5496	-0.002888886258006096
0	5542	0.00830604787915945
0	5564	0.003971118945628405
0	5890	0.05884476378560066
0	6624	0.1322125494480133
0	8102	0.2645205855369568
1	6968	-0.19985665380954742
0	4432	-0.4432016909122467
0	4774	0.060159020125865936
0	4952	0.03144209459424019
0	5066	0.020205600187182426
0	5118	0.009241706691682339
0	5252	0.023870883509516716
0	5284	0.005709256511181593
0	5342	0.01035997923463583
0	5428	0.015377829782664776
0	5450	0.003935740329325199
0	5508	0.01037864200770855
0	5570	0.011096527799963951
0	5580	0.0017887807916849852
0	5696	0.020751342177391052
0	5756	0.010733837261795998
0	5902	0.026112152263522148
0	5996	0.016786713153123856
0	6130	0.02387712150812149
0	6264	0.023799939081072807
0	6302	0.0067194001749157906
0	6312	0.0017597785918042064
0	6174	-0.02417038381099701
0	6016	-0.027560383081436157
0	5790	-0.039306625723838806
0	5516	-0.04757384955883026
0	5270	-0.04271871596574783
0	4988	-0.04905371740460396
0	4798	-0.033224139362573624
0	4700	-0.017321016639471054
0	4704	0.0007214399520307779
0	4752	0.008776742033660412
0	4810	0.01058458536863327
0	4896	0.01569094881415367
0	4932	0.0065705422312021255
0	5000	0.01242115069180727
0	5072	0.013161261565983295
0	5094	0.004025912377983332
0	5206	0.020519334822893143
0	5258	0.009534752927720547
0	5298	0.007342053577303886
0	5394	0.017637332901358604
0	5420	0.004780114628374577
0	5448	0.005152552388608456
0	5494	0.008471767418086529
0	5496	0.00036879500839859247
0	5556	0.011081560514867306
0	5506	-0.00925434660166502
0	5556	0.009282408282160759
0	5536	-0.003726199036464095
0	5514	-0.004117434378713369
0	5504	-0.0018808069871738553
0	5498	-0.0011342298239469528
0	5480	-0.0034172458108514547
0	5484	0.0007619725074619055
0	5460	-0.004580735228955746
0	5488	0.005346096120774746
0	5464	-0.004576019011437893
0	5514	0.009504619054496288
0	5454	-0.011354031041264534
0	5500	0.008663552813231945
0	5506	0.0011244097258895636
0	5490	-0.002984369406476617
0	5520	0.005572134628891945
0	5498	-0.00407050596550107
0	5556	0.010694003663957119
0	5496	-0.011025087907910347
0	5498	0.00036655101575888693
0	5604	0.019379371777176857
0	5640	0.00656574871391058
0	5640	0.0
0	5622	-0.0032684882171452045
0	5552	-0.012693270109593868
0	5526	-0.004710884764790535
0	5412	-0.020645691081881523
0	5494	0.014857764355838299
0	5486	-0.0014495555078610778
0	5426	-0.010876264423131943
0	5510	0.015234135091304779
0	5486	-0.004353820346295834
0	5516	0.005443921312689781
0	5776	0.04718008264899254
0	6472	0.12609000504016876
0	8191	0.30959954857826233
1	7286	-0.16038420796394348
0	4430	-0.5008095502853394
0	4760	0.05821714550256729
0	4888	0.022678282111883163
0	4988	0.017777882516384125
0	5088	0.017833471298217773
0	5158	0.012510648928582668
0	5250	0.016476135700941086
0	5272	0.0039459760300815105
0	5348	0.013649343512952328
0	5398	0.00898908730596304
0	5468	0.01259226817637682
0	5570	0.018358422443270683
0	5620	0.008995232172310352
0	5634	0.002516823587939143
0	5748	0.020490452647209167
0	5870	0.021914200857281685
0	6018	0.026547878980636597
0	6128	0.019684921950101852
0	6248	0.021400928497314453
0	6288	0.007103155832737684
0	6246	-0.007419839035719633
0	6208	-0.006683590356260538
0	6012	-0.034327950328588486
0	5738	-0.04782545566558838
0	5530	-0.03625735640525818
0	5214	-0.0550692118704319
0	4974	-0.041898224502801895
0	4752	-0.03893757984042168
0	4686	-0.011693626642227173
0	4644	-0.007598692551255226
0	4694	0.009192528203129768
0	4752	0.010646108537912369
0	4820	0.012482255697250366
0	4912	0.016894787549972534
0	4980	0.012493263930082321
0	5042	0.011398455128073692
0	5116	0.013614285737276077
0	5192	0.01399374008178711
0	5194	0.0003684372059069574
0	5326	0.024339871481060982
0	5316	-0.001844746177084744
0	5406	0.01661824807524681
0	5436	0.00554501311853528
0	5474	0.007031654939055443
0	5494	0.003704527160152793
0	5512	0.003339311107993126
0	5496	-0.002974862465634942
0	5530	0.006342100445181131
0	5538	0.001497828052379191
0	5522	-0.0030089893843978643
0	5518	-0.0007558769430033863
0	5536	0.003417115891352296
0	5498	-0.007244718726724386
0	5508	0.00191275286488235
0	5504	-0.0007662248099222779
0	5502	-0.0003831760259345174
0	5530	0.005354615859687328
0	5524	-0.0011433652834966779
0	5550	0.0049304054118692875
0	5526	-0.0045264228247106075
0	5524	-0.00037512191920541227
0	5556	0.005970966070890427
0	5532	-0.00445594172924757
0	5570	0.007024289574474096
0	5572	0.00036820658715441823
0	5560	-0.002201242372393608
0	5568	0.0014628615463152528
0	5544	-0.004376527387648821
0	5516	-0.005095046944916248
0	5608	0.016708236187696457
0	5696	0.015954554080963135
0	5664	-0.005788362585008144
0	5646	-0.0032508971635252237
0	5616	-0.005411320831626654
0	5554	-0.011173855513334274
0	5546	-0.0014412683667615056
0	5482	-0.011527793481945992
0	5488	0.0010808213846758008
0	5470	-0.003243282437324524
0	5512	0.007570750545710325
0	5512	0.0
0	5518	0.0010816397843882442
0	5542	0.004327027127146721
0	5946	0.07281903177499771
0	7164	0.21896235644817352
0	8191	0.18280744552612305
1	6850	-0.23495125770568848
0	4466	-0.4144957363605499
0	4778	0.05458076298236847
0	4902	0.02179044857621193
0	4962	0.010582446120679379
0	5060	0.017341962084174156
0	5132	0.012778419069945812
0	5194	0.011029738932847977
0	5274	0.014263724908232689
0	5326	0.009287870489060879
0	5386	0.01073172502219677
0	5440	0.009669044055044651
0	5512	0.012900066561996937
0	5600	0.01576712355017662
0	5628	0.005017051938921213
0	5764	0.024378439411520958
0	5796	0.005732678342610598
0	5982	0.033291373401880264
0	6070	0.015716437250375748
0	6224	0.02741953730583191
0	6270	0.008157426491379738
0	6278	0.001412105280905962
0	6174	-0.018272435292601585
0	6012	-0.02834596112370491
0	5802	-0.036637917160987854
0	5480	-0.0560835599899292
0	5204	-0.04808222874999046
0	4990	-0.03735446557402611
0	4756	-0.041074011474847794
0	4646	-0.01958422176539898
0	4646	0.0
0	4698	0.009585018269717693
0	4764	0.012148282490670681
0	4796	0.00589058268815279
0	4884	0.016209645196795464
0	5004	0.022114653140306473
0	5074	0.012904653325676918
0	5156	0.015122268348932266
0	5196	0.007378439884632826
0	5230	0.006274683400988579
0	5308	0.014403368346393108
0	5320	0.002216967288404703
0	5398	0.014420944266021252
0	5426	0.005180388689041138
0	5456	0.0055563785135746
0	5512	0.010382932610809803
0	5500	-0.002228384604677558
0	5544	0.008185741491615772
0	5496	-0.00895422138273716
0	5520	0.004493148066103458
0	5522	0.0003760812396649271
0	5494	-0.0052899387665092945
0	5516	0.004177004098892212
0	5508	-0.001525262137874961
0	5528	0.003825408173725009
0	5562	0.006514574401080608
0	5528	-0.006511164829134941
0	5546	0.003439972409978509
0	5522	-0.004570441786199808
0	5558	0.0068224892020225525
0	5538	-0.0037685600109398365
0	5540	0.0003747564333025366
0	5548	0.001491183415055275
0	5570	0.004080875311046839
0	5706	0.02510707452893257
0	5718	0.0022041804622858763
0	5664	-0.009875640273094177
0	5644	-0.0036445362493395805
0	5586	-0.010537918657064438
0	5522	-0.011600648052990437
0	5522	0.0
0	5494	-0.0050598145462572575
0	5532	0.0068597011268138885
0	5510	-0.003968206234276295
0	5512	0.00036056392127647996
0	5540	0.00504619674757123
0	5530	-0.0018019101116806269
0	6166	0.11458083242177963
0	6762	0.10697490721940994
0	7964	0.21412284672260284
1	6990	-0.17102520167827606
0	4364	-0.457172691822052
0	4764	0.07009755074977875
0	5030	0.046820543706417084
0	5092	0.010943750850856304
0	5214	0.021589864045381546
0	5264	0.008866505697369576
0	5310	0.008169935084879398
0	5388	0.013872750103473663
0	5398	0.001779971644282341
0	5488	0.016034968197345734
0	5470	-0.00320794596336782
0	5544	0.013193709775805473
0	5566	0.0039225476793944836
0	5684	0.02103961817920208
0	5728	0.007846307009458542
0	5800	0.01283864863216877
0	5908	0.0192424189299345
0	6058	0.0266837440431118
0	6228	0.030157173052430153
0	6340	0.019785655662417412
0	6312	-0.0049227019771933556
0	6280	-0.00559910386800766
0	6094	-0.032403428107500076
0	5876	-0.037849850952625275
0	5644	-0.04019589722156525
0	5282	-0.06268180906772614
0	5032	-0.04335059970617294
0	4824	-0.03630566596984863
0	4702	-0.021537519991397858
0	4718	0.0028798733837902546
0	4666	-0.009488935582339764
0	4748	0.01493588462471962
0	4828	0.014573010616004467
0	4874	0.008389771915972233
0	4984	0.020089121535420418
0	5026	0.0076811471953988075
0	5108	0.015018315054476261
0	5188	0.014670106582343578
0	5244	0.010281643830239773
0	5346	0.018744945526123047
0	5408	0.011403906159102917
0	5460	0.009568204171955585
0	5486	0.0047865682281553745
0	5502	0.0029470270965248346
0	5528	0.0047942763194441795
0	5546	0.003323199460282922
0	5512	-0.006286982446908951
0	5548	0.00667309295386076
0	5522	-0.004834691062569618
0	5528	0.0011206016642972827
0	5490	-0.007133203092962503
0	5482	-0.0015094910049811006
0	5478	-0.0007585526327602565
0	5454	-0.0045691076666116714
0	5510	0.010689878836274147
0	5478	-0.006113715004175901
0	5502	0.004579570144414902
0	5536	0.006468387320637703
0	5512	-0.004545397125184536
0	5546	0.006406552158296108
0	5500	-0.008622844703495502
0	5500	0.0
0	5642	0.026357145980000496
0	5652	0.0018468358321115375
0	5678	0.004778884816914797
0	5636	-0.007687051314860582
0	5592	-0.008023242466151714
0	5578	-0.0025453618727624416
0	5484	-0.017049988731741905
0	5486	0.00036224006908014417
0	5476	-0.0018096708226948977
0	5492	0.00289428629912436
0	5508	0.0028937277384102345
0	5508	0.0
0	5584	0.013742887414991856
0	5606	0.003976861946284771
0	6332	0.1311890184879303
0	7740	0.2531766891479492
0	8191	0.08004401624202728
1	5874	-0.4048316478729248
0	4612	-0.22005614638328552
0	4932	0.056084923446178436
0	4994	0.01090148277580738
0	5102	0.019043700769543648
0	5190	0.015549260191619396
0	5264	0.01310020498931408
0	5330	0.011698739603161812
0	5346	0.0028389431536197662
0	5442	0.017052821815013885
0	5474	0.0056866309605538845
0	5542	0.01208924688398838
0	5594	0.009242418222129345
0	5620	0.0046186367981135845
0	5754	0.023806845769286156
0	5842	0.015624907799065113
0	5966	0.02199556492269039
0	6086	0.021244578063488007
0	6210	0.021888919174671173
0	6320	0.01934564858675003
0	6282	-0.006650449242442846
0	6250	-0.005574492271989584
0	6088	-0.028094597160816193
0	5932	-0.02696116454899311
0	5626	-0.052756499499082565
0	5298	-0.056511130183935165
0	5030	-0.046249691396951675
0	4782	-0.04294050112366676
0	4708	-0.012928549200296402
0	4658	-0.008892524987459183
0	4650	-0.0014532420318573713
0	4754	0.01903321035206318
0	4746	-0.0014628259232267737
0	4862	0.02123505063354969
0	4950	0.016122333705425262
0	5012	0.01136947050690651
0	5070	0.010647541843354702
0	5094	0.0044111162424087524
0	5216	0.022455641999840736
0	5248	0.005894705653190613
0	5312	0.01180347241461277
0	5380	0.012553691864013672
0	5440	0.011087840422987938
0	5494	0.009988531470298767
0	5508	0.0025916327722370625
0	5546	0.007045126054435968
0	5598	0.009658366441726685
0	5552	-0.008563450537621975
0	5564	0.0022413707338273525
0	5552	-0.002250421792268753
0	5512	-0.007537593599408865
0	5554	0.007952938787639141
0	5522	-0.006086118519306183
0	5578	0.010689062997698784
0	5512	-0.01262626238167286
0	5502	-0.0019144618418067694
0	5518	0.0030591562390327454
0	5504	-0.00266846246086061
0	5510	0.0011384047102183104
0	5532	0.00415308540686965
0	5514	-0.003379393368959427
0	5560	0.008589781820774078
0	5524	-0.006688880268484354
0	5550	0.004807692486792803
0	5542	-0.0014730433467775583
0	5528	-0.0025684931315481663
0	5654	0.023043721914291382
0	5678	0.0043737092055380344
0	5634	-0.007990121841430664
0	5606	-0.005071789957582951
0	5558	-0.008675744757056236
0	5552	-0.0010828630765900016
0	5480	-0.012980924919247627
0	5474	-0.001081483787856996
0	5478	0.0007210758631117642
0	5474	-0.000721205840818584
0	5524	0.009018976241350174
0	5512	-0.002165517769753933
0	5570	0.01046918798238039
0	5624	0.009746823459863663
0	6224	0.10825114697217941
0	7940	0.30827823281288147
0	8191	0.04445677995681763
1	5860	-0.40645870566368103
0	4612	-0.21725885570049286
0	4892	0.04899987950921059
0	4932	0.007024979684501886
0	5070	0.024319609627127647
0	5134	0.01130748726427555
0	5214	0.01416572742164135
0	5292	0.013837556354701519
0	5312	0.0035527555737644434
0	5412	0.017789902165532112
0	5406	-0.0010681034764274955
0	5514	0.0192423053085804
0	5550	0.006415168289095163
0	5606	0.009977847337722778
0	5690	0.014971037395298481
0	5792	0.0181778222322464
0	5920	0.02278999425470829
0	6036	0.02061501331627369
0	6174	0.024455510079860687
0	6306	0.02330659329891205
0	6310	0.0007028435938991606
0	6242	-0.01189012173563242
0	6082	-0.027852728962898254
0	5890	-0.03330577164888382
0	5636	-0.04396770894527435
0	5302	-0.05777446925640106
0	5080	-0.03846042975783348
0	4800	-0.04866151884198189
0	4698	-0.01787414401769638
0	4636	-0.011074394918978214
0	4618	-0.003284671576693654
0	4692	0.013606442138552666
0	4764	0.013232213445007801
0	4868	0.01912819594144821
0	4916	0.008831863291561604
0	4968	0.009576897136867046
0	5068	0.018435897305607796
0	5114	0.008488128893077374
0	5174	0.01108360756188631
0	5202	0.00517674908041954
0	5270	0.012588396668434143
0	5322	0.00963450688868761
0	5364	0.007790955249220133
0	5418	0.010028475895524025
0	5414	-0.0007437156164087355
0	5478	0.01191983837634325
0	5492	0.002612557727843523
0	5480	-0.002245312789455056
0	5556	0.014269799925386906
0	5522	-0.0064086453057825565
0	5556	0.006440369412302971
0	5512	-0.008374464698135853
0	5532	0.0038242866285145283
0	5498	-0.006524158641695976
0	5498	0.0
0	5544	0.008856827393174171
0	5496	-0.009227575734257698
0	5540	0.008436121977865696
0	5530	-0.001908275531604886
0	5532	0.0003796459059230983
0	5538	0.001132517121732235
0	5532	-0.0011259992606937885
0	5552	0.003733711550012231
0	5532	-0.003715492319315672
0	5560	0.005180388689041138
0	5560	0.0
0	5540	-0.0036722852382808924
0	5560	0.0036617072764784098
0	5512	-0.008764241822063923
0	5616	0.01895020715892315
0	5730	0.020720239728689194
0	5636	-0.01703762635588646
0	5700	0.011578122153878212
0	5650	-0.009027117863297462
0	5598	-0.009375112131237984
0	5536	-0.011165671981871128
0	5490	-0.008281324990093708
0	5526	0.006481114774942398
0	5496	-0.005399438552558422
0	5526	0.005401382688432932
0	5536	0.0018004176672548056
0	5508	-0.005041774827986956
0	5550	0.00756284361705184
0	5986	0.07850103825330734
0	6982	0.17880436778068542
0	8191	0.2151322215795517
1	6866	-0.23212899267673492
0	4474	-0.4157324731349945
0	4844	0.06470605731010437
0	4944	0.01755833812057972
0	5010	0.011628521606326103
0	5110	0.017673777416348457
0	5170	0.010630696080625057
0	5250	0.014206311665475368
0	5292	0.007470784243196249
0	5384	0.016390619799494743
0	5428	0.007847193628549576
0	5482	0.00963706336915493
0	5522	0.007141879294067621
0	5576	0.009640962816774845
0	5672	0.017143571749329567
0	5718	0.0082174651324749
0	5840	0.021783508360385895
0	5972	0.02354942075908184
0	6066	0.016737990081310272
0	6200	0.023794444277882576
0	6266	0.01167377084493637
0	6266	0.0
0	6192	-0.012972821481525898
0	5986	-0.03596724569797516
0	5858	-0.022288909181952477
0	5556	-0.052489787340164185
0	5320	-0.04100710526108742
0	5074	-0.042801715433597565
0	4852	-0.038831330835819244
0	4784	-0.012043854221701622
0	4728	-0.010122067295014858
0	4736	0.0014648794895038009
0	4790	0.009872149676084518
0	4826	0.0065835993736982346
0	4932	0.019398996606469154
0	4984	0.009521019645035267
0	5060	0.013926045969128609
0	5070	0.0018336062785238028
0	5202	0.024230260401964188
0	5218	0.0029386195819824934
0	5268	0.009192528203129768
0	5346	0.014354418963193893
0	5378	0.0058939093723893166
0	5436	0.010692164301872253
0	5504	0.012546434067189693
0	5506	0.00036939443089067936
0	5510	0.0007397543522529304
0	5528	0.003335680579766631
0	5544	0.0029732040129601955
0	5522	-0.004101417027413845
0	5518	-0.0007488673436455429
0	5488	-0.005642845295369625
0	5510	0.00415837112814188
0	5462	-0.009111963212490082
0	5528	0.012570629827678204
0	5538	0.0019086396787315607
0	5524	-0.00267240172252059
0	5574	0.009531919844448566
0	5570	-0.0007601383258588612
0	5616	0.008702012710273266
0	5744	0.024087920784950256
0	5770	0.004861873108893633
0	5734	-0.0066887144930660725
0	5644	-0.01662459224462509
0	5620	-0.004411008208990097
0	5540	-0.01464164536446333
0	5486	-0.009849701076745987
0	5460	-0.0047301966696977615
0	5426	-0.006171046756207943
0	5440	0.002537580206990242
0	5468	0.005068362224847078
0	5470	0.00036158954026177526
0	5592	0.022040491923689842
0	5880	0.05196304991841316
0	6490	0.10976750403642654
0	7166	0.12092878669500351
0	7352	0.032947178930044174
1	5014	-0.40968671441078186
0	4820	-0.03409690037369728
0	5128	0.05436381697654724
0	5240	0.019814591854810715
0	5348	0.019138304516673088
0	5374	0.004611182492226362
0	5424	0.008874794468283653
0	5462	0.006746360566467047
0	5466	0.0007104206597432494
0	5504	0.006751874461770058
0	5490	-0.0024878275580704212
0	5546	0.00995626300573349
0	5566	0.003556314390152693
0	5612	0.008181947283446789
0	5660	0.008544371463358402
0	5716	0.009974943473935127
0	5846	0.023158594965934753
0	5970	0.022063270211219788
0	6088	0.020952200517058372
0	6164	0.01345100998878479
0	6168	0.0007051274296827614
0	6118	-0.008777575567364693
0	5998	-0.02098122239112854
0	5754	-0.04252352565526962
0	5520	-0.040713120251894
0	5254	-0.0462673045694828
0	4964	-0.05054084584116936
0	4760	-0.035743072628974915
0	4654	-0.018761947751045227
0	4660	0.0010779734002426267
0	4614	-0.008399883285164833
0	4680	0.012081421911716461
0	4720	0.0073283337987959385
0	4808	0.016162605956196785
0	4872	0.011785793118178844
0	4896	0.004432624205946922
0	4916	0.0037047555670142174
0	4926	0.0018582064658403397
0	5022	0.017898203805088997
0	5064	0.007852130569517612
0	5084	0.003749390598386526
0	5166	0.015411603264510632
0	5188	0.004144687205553055
0	5242	0.010197530500590801
0	5218	-0.004542815964668989
0	5260	0.00797216035425663
0	5308	0.009137404151260853
0	5258	-0.009550733491778374
0	5306	0.00921045895665884
0	5278	-0.0053997766226530075
0	5332	0.010473505593836308
0	5320	-0.0023400934878736734
0	5284	-0.007056886330246925
0	5300	0.0031510950066149235
0	5284	-0.003160514635965228
0	5270	-0.0027697542682290077
0	5280	0.001978187123313546
0	5218	-0.01223925780504942
0	5264	0.009053454734385014
0	5196	-0.013330022804439068
0	5308	0.02187870442867279
0	5360	0.010112272575497627
0	5394	0.006582853849977255
0	5370	-0.004626595415174961
0	5312	-0.011140706017613411
0	5318	0.0011492491466924548
0	5236	-0.015664199367165565
0	5244	0.0015251070726662874
0	5250	0.0011415235931053758
0	5250	0.0
0	5288	0.007210717536509037
0	5286	-0.0003790223563555628
0	5352	0.012498264200985432
0	5424	0.013620369136333466
0	5600	0.03325607255101204
0	6174	0.10819981247186661
0	7758	0.29688122868537903
0	7994	0.043565478175878525
1	4710	-0.5961875915527344
0	4690	-0.0036440049298107624
0	4900	0.03839918226003647
0	4994	0.017233582213521004
0	5086	0.016900580376386642
0	5196	0.02023174613714218
0	5288	0.016931893303990364
0	5396	0.019876081496477127
0	5462	0.012137112207710743
0	5492	0.005510721821337938
0	5640	0.02714069001376629
0	5698	0.010611826553940773
0	5748	0.009120204485952854
0	5858	0.020010914653539658
0	5942	0.0152350552380085
0	6044	0.01843862235546112
0	6158	0.020524514839053154
0	6344	0.033318206667900085
0	6434	0.0160235483199358
0	6586	0.02687094919383526
0	6608	0.0038587013259530067
0	6500	-0.018793504685163498
0	6340	-0.02764180675148964
0	6140	-0.03434419631958008
0	5850	-0.04955683648586273
0	5590	-0.044304586946964264
0	5324	-0.04528430476784706
0	5158	-0.028304461389780045
0	5044	-0.019550900906324387
0	5006	-0.006619670893996954
0	5072	0.01170032937079668
0	5168	0.01698233373463154
0	5246	0.013759364373981953
0	5348	0.017956482246518135
0	5394	0.008081234060227871
0	5522	0.02244642563164234
0	5578	0.009801633656024933
0	5594	0.002795736538246274
0	5642	0.008377548307180405
0	5654	0.0020921961404383183
0	5738	0.014631597325205803
0	5742	0.0006963465129956603
0	5782	0.006961687467992306
0	5856	0.012876582331955433
0	5830	-0.004524257034063339
0	5854	0.00417895196005702
0	5862	0.0013945217942819
0	5868	0.0010476933093741536
0	5882	0.002451409585773945
0	5828	-0.009485999122262001
0	5842	0.0024702975060790777
0	5832	-0.0017724840436130762
0	5838	0.001067704288288951
0	5838	0.0
0	5852	0.0025032481644302607
0	5866	0.0025032185949385166
0	5966	0.017850767821073532
0	6004	0.006757477764040232
0	5938	-0.01167810894548893
0	5932	-0.0010560777736827731
0	5902	-0.005251855589449406
0	5888	-0.0024390527978539467
0	5888	0.0
0	5782	-0.01832219399511814
0	5812	0.005172592122107744
0	5784	-0.0048161824233829975
0	5820	0.006182946264743805
0	5876	0.00960461050271988
0	5890	0.0023972876369953156
0	5828	-0.010601552203297615
0	6756	0.15852408111095428
0	7976	0.2072034478187561
0	8191	0.03605930507183075
1	5652	-0.4201763868331909
0	4828	-0.1365165114402771
0	5206	0.0629737600684166
0	5258	0.008694344200193882
0	5376	0.019796110689640045
0	5388	0.002018718048930168
0	5394	0.0010121628874912858
0	5462	0.011499241925776005
0	5460	-0.00033893901854753494
0	5454	-0.0010189582826569676
0	5496	0.00714824628084898
0	5480	-0.002728435443714261
0	5518	0.006493765395134687
0	5506	-0.002054736018180847
0	5534	0.004807004239410162
0	5586	0.008951370604336262
0	5678	0.01586909219622612
0	5754	0.013128422200679779
0	5848	0.016251634806394577
0	5982	0.023172564804553986
0	6012	0.005185078363865614
0	6056	0.007594718132168055
0	5946	-0.018960177898406982
0	5824	-0.021009007468819618
0	5676	-0.025485750287771225
0	5364	-0.05378846824169159
0	5110	-0.04392209276556969
0	4782	-0.05695400387048721
0	4622	-0.0281035378575325
0	4518	-0.01863320730626583
0	4472	-0.008426452055573463
0	4536	0.011808844283223152
0	4542	0.0011090709595009685
0	4620	0.01447715237736702
0	4700	0.014907202683389187
0	4744	0.00823353324085474
0	4788	0.00826674047857523
0	4824	0.006789463572204113
0	4896	0.0136336088180542
0	4920	0.004560772329568863
0	4966	0.008771149441599846
0	5054	0.01683630608022213
0	5018	-0.006906342227011919
0	5094	0.014626824297010899
0	5160	0.012735903263092041
0	5172	0.0023212027736008167
0	5210	0.007370149716734886
0	5240	0.005836197175085545
0	5280	0.007807619869709015
0	5188	-0.018024137243628502
0	5128	-0.011816141195595264
0	5176	0.009508088231086731
0	5126	-0.009962144307792187
0	5166	0.008013355545699596
0	5170	0.0008048721356317401
0	5160	-0.002019032835960388
0	5162	0.0004043616936542094
0	5342	0.03637980669736862
0	5460	0.023759344592690468
0	5346	-0.022825565189123154
0	5426	0.01592990756034851
0	5278	-0.029284896329045296
0	5166	-0.022053612396121025
0	5272	0.020787030458450317
0	5132	-0.02733805403113365
0	5138	0.0011683455668389797
0	5094	-0.008546012453734875
0	5138	0.008529115468263626
0	5224	0.016636788845062256
0	5256	0.006177367642521858
0	5314	0.011172323487699032
0	5286	-0.005381510592997074
0	5984	0.1339542716741562
0	7834	0.352855920791626
0	8191	0.0669257864356041
1	5652	-0.4671315550804138
0	4356	-0.23774147033691406
0	4624	0.04942065849900246
0	4766	0.02628510259091854
0	4894	0.023768994957208633
0	4982	0.016370976343750954
0	5098	0.021599479019641876
0	5208	0.020492184907197952
0	5182	-0.00484114233404398
0	5298	0.021596798673272133
0	5356	0.01078982837498188
0	5458	0.018952179700136185
0	5498	0.007418626919388771
0	5588	0.016675828024744987
0	5696	0.01999518647789955
0	5728	0.005911730229854584
0	5910	0.033560555428266525
0	6056	0.02681802213191986
0	6174	0.021557368338108063
0	6278	0.018895920366048813
0	6266	-0.002165270270779729
0	6174	-0.016488539054989815
0	6030	-0.025642700493335724
0	5822	-0.03684437274932861
0	5596	-0.03989197686314583
0	5226	-0.0651794821023941
0	4990	-0.04159542918205261
0	4784	-0.036371126770973206
0	4640	-0.02560530975461006
0	4556	-0.015224654227495193
0	4548	-0.0014825246762484312
0	4644	0.017912453040480614
0	4720	0.01415533572435379
0	4910	0.03536726161837578
0	5010	0.018597731366753578
0	5182	0.03196511045098305
0	5244	0.011508049443364143
0	5328	0.015577479265630245
0	5406	0.01445408072322607
0	5374	-0.005921685602515936
0	5454	0.014797277748584747
0	5442	-0.0022182513494044542
0	5508	0.012201584875583649
0	5566	0.010721944272518158
0	5596	0.005546585191041231
0	5698	0.018870018422603607
0	5716	0.003330619540065527
0	5776	0.011115365661680698
0	5838	0.011505771428346634
0	5852	0.002603488741442561
0	5868	0.0029832934960722923
0	5850	-0.003364528063684702
0	5880	0.0056188893504440784
0	5908	0.005249212495982647
0	5932	0.004496908280998468
0	6082	0.02804681845009327
0	6156	0.013763003051280975
0	6152	-0.0007386069628410041
0	6134	-0.0032959787640720606
0	6060	-0.013427689671516418
0	6092	0.0057542226277291775
0	6018	-0.013184620067477226
0	6040	0.0038880249485373497
0	6066	0.004559483844786882
0	6098	0.005574006587266922
0	6060	-0.006577580701559782
0	6026	-0.005855540279299021
0	6090	0.01097293384373188
0	6094	0.0006828347104601562
0	6712	0.105086550116539
0	7988	0.2153416872024536
0	8191	0.03377741575241089
1	6210	-0.3246707022190094
0	4942	-0.2070215344429016
0	5300	0.05864846706390381
0	5302	0.00032817551982589066
0	5412	0.01808883249759674
0	5454	0.006918173283338547
0	5514	0.009900609031319618
0	5570	0.009257066063582897
0	5578	0.0013244959991425276
0	5622	0.007296405266970396
0	5644	0.003652806393802166
0	5698	0.008977705612778664
0	5730	0.005326320417225361
0	5834	0.01732996478676796
0	5864	0.005005923565477133
0	5908	0.007353965658694506
0	6038	0.021757200360298157
0	6174	0.02277357503771782
0	6246	0.012048931792378426
0	6410	0.02742123417556286
0	6396	-0.0023357339669018984
0	6330	-0.010989559814333916
0	6228	-0.016959015280008316
0	6032	-0.032564450055360794
0	5756	-0.04586317390203476
0	5474	-0.04693038761615753
0	5214	-0.043417513370513916
0	4946	-0.04497373849153519
0	4766	-0.030507612973451614
0	4662	-0.017953425645828247
0	4620	-0.007400707341730595
0	4698	0.013873737305402756
0	4762	0.01140007097274065
0	4814	0.009292240254580975
0	4834	0.0035843579098582268
0	4956	0.021940341219305992
0	4964	0.0014430189039558172
0	5046	0.014840017072856426
0	5098	0.009440585039556026
0	5066	-0.005826515611261129
0	5168	0.01863490231335163
0	5192	0.004397429991513491
0	5224	0.005881416145712137
0	5304	0.014749262481927872
0	5324	0.0036993648391216993
0	5342	0.0033405504655092955
0	5368	0.0048421937972307205
0	5338	-0.005610482767224312
0	5350	0.0022559501230716705
0	5332	-0.0034030324313789606
0	5322	-0.00190350494813174
0	5338	0.003066504839807749
0	5308	-0.005786367226392031
0	5310	0.00038805315853096545
0	5234	-0.014815200120210648
0	5276	0.008215212263166904
0	5306	0.0058755939826369286
0	5410	0.020356500521302223
0	5332	-0.015221294946968555
0	5300	-0.006221727002412081
0	5342	0.008132390677928925
0	5276	-0.012720193713903427
0	5182	-0.018049616366624832
0	5200	0.0034470432437956333
0	5178	-0.004202697426080704
0	5232	0.010293164290487766
0	5268	0.006850097328424454
0	5268	0.0
0	5294	0.004930842202156782
0	5218	-0.014395393431186676
0	6050	0.15744058787822723
0	7336	0.24200530350208282
0	7748	0.07650314271450043
1	4898	-0.5210682153701782
0	4384	-0.09420821070671082
0	4668	0.052353449165821075
0	4810	0.02628558687865734
0	4866	0.010401961393654346
0	4992	0.023473011329770088
0	5094	0.0190443005412817
0	5112	0.003365744138136506
0	5214	0.019097547978162766
0	5258	0.008244537748396397
0	5302	0.008247112855315208
0	5420	0.02211836539208889
0	5458	0.007114594802260399
0	5540	0.015335127711296082
0	5576	0.006722689140588045
0	5706	0.024251319468021393
0	5820	0.02121719717979431
0	5922	0.01892276294529438
0	6092	0.03142522647976875
0	6142	0.00919647328555584
0	6158	0.0029256518464535475
0	6116	-0.007635253481566906
0	5982	-0.02422241121530533
0	5846	-0.024473343044519424
0	5534	-0.05595074221491814
0	5210	-0.05801045522093773
0	4966	-0.04370880126953125
0	4752	-0.03839253634214401
0	4640	-0.020250478759407997
0	4550	-0.016541482880711555
0	4576	0.00487414700910449
0	4588	0.0022541419602930546
0	4666	0.014633230865001678
0	4748	0.015383846126496792
0	4814	0.012386921793222427
0	4876	0.01163998618721962
0	4944	0.01277571078389883
0	5036	0.017301037907600403
0	5098	0.011664952151477337
0	5172	0.013932820409536362
0	5270	0.01846153847873211
0	5274	0.0007536836201325059
0	5344	0.013201569207012653
0	5370	0.004906956572085619
0	5424	0.010202283039689064
0	5404	-0.003782243700698018
0	5376	-0.005305240862071514
0	5414	0.007220216561108828
0	5416	0.0003812380018644035
0	5460	0.008423416875302792
0	5472	0.002307337475940585
0	5424	-0.009270108304917812
0	5408	-0.0031038629822432995
0	5434	0.005062568001449108
0	5552	0.023037875071167946
0	5644	0.017959630116820335
0	5622	-0.004282599315047264
0	5566	-0.01085495762526989
0	5500	-0.012726407498121262
0	5468	-0.006136459298431873
0	5426	-0.008007117547094822
0	5428	0.0003792427887674421
0	5496	0.012826155871152878
0	5454	-0.00788091029971838
0	5476	0.0041099474765360355
0	5506	0.005581464618444443
0	5592	0.01593792997300625
0	5972	0.07014262676239014
0	6890	0.16847951710224152
0	7974	0.1967879682779312
0	7166	-0.14423763751983643
1	4782	-0.42082467675209045
0	4728	-0.00955977849662304
0	4932	0.03624647483229637
0	5052	0.02137691155076027
0	5154	0.018210601061582565
0	5302	0.026462595909833908
0	5292	-0.0017888020956888795
0	5360	0.012172709219157696
0	5448	0.01575818471610546
0	5458	0.0017908309819176793
0	5520	0.011104079894721508
0	5534	0.002505936659872532
0	5594	0.010731660760939121
0	5714	0.021442867815494537
0	5788	0.013210354372859001
0	5904	0.020690392702817917
0	6014	0.019587360322475433
0	6088	0.013142005540430546
0	6172	0.014866204001009464
0	6200	0.004934906028211117
0	6224	0.004210772458463907
0	6120	-0.018162131309509277
0	5982	-0.024012528359889984
0	5788	-0.033653680235147476
0	5534	-0.04398268461227417
0	5280	-0.043975576758384705
0	5054	-0.03919845446944237
0	4932	-0.021273134276270866
0	4832	-0.017637722194194794
0	4794	-0.0068284738808870316
0	4848	0.009843476116657257
0	4888	0.007288540713489056
0	4978	0.016383295878767967
0	4954	-0.004367660265415907
0	5084	0.023672230541706085
0	5112	0.005100801587104797
0	5202	0.016414372250437737
0	5252	0.009124087169766426
0	5326	0.013512526638805866
0	5416	0.016446366906166077
0	5458	0.007676935289055109
0	5474	0.0029256518464535475
0	5536	0.011341048404574394
0	5600	0.011711031198501587
0	5650	0.009155608713626862
0	5602	-0.008796794340014458
0	5612	0.001836052630096674
0	5614	0.00036811621976085007
0	5606	-0.0014767595566809177
0	5610	0.0007409602985717356
0	5600	-0.0018591737607493997
0	5580	-0.0037327827885746956
0	5558	-0.004119901917874813
0	5548	-0.0018776522483676672
0	5540	-0.0015043815365061164
0	5642	0.019180143252015114
0	5710	0.012757813557982445
0	5680	-0.005605451297014952
0	5652	-0.005207493901252747
0	5644	-0.0014803300146013498
0	5520	-0.022825447842478752
0	5536	0.002933124778792262
0	5492	-0.008034279569983482
0	5498	0.0010921667562797666
0	5542	0.007982873357832432
0	5524	-0.0032567002344876528
0	5548	0.004331504460424185
0	5570	0.003962297923862934
0	5520	-0.008988063782453537
0	6118	0.10737243294715881
0	7546	0.25532829761505127
0	8191	0.1139092966914177
1	6858	-0.23170652985572815
0	4536	-0.4005497097969055
0	4798	0.04547373950481415
0	4920	0.02127968892455101
0	5012	0.01611086167395115
0	5102	0.015816019847989082
0	5164	0.010928255505859852
0	5286	0.021559976041316986
0	5342	0.009915306232869625
0	5476	0.023762095719575882
0	5480	0.0007097526104189456
0	5644	0.0291132889688015
0	5416	-0.04045158997178078
0	5522	0.01882024295628071
0	5578	0.009949835948646069
0	5706	0.02276027575135231
0	5812	0.0188454482704401
0	5962	0.026642827317118645
0	6096	0.023756198585033417
0	6256	0.028269382193684578
0	6284	0.004926252644509077
0	6224	-0.010507451370358467
0	6172	-0.009068028070032597
0	5964	-0.03613976389169693
0	5774	-0.03292836993932724
0	5538	-0.04084717482328415
0	5250	-0.049856603145599365
0	5052	-0.03432990238070488
0	4858	-0.03384488448500633
0	4834	-0.004253484308719635
0	4792	-0.007594204507768154
0	4828	0.006591394543647766
0	4836	0.0014621486188843846
0	4902	0.012059934437274933
0	4964	0.011330271139740944
0	5030	0.012064783833920956
0	5098	0.012435839511454105
0	5182	0.015368102118372917
0	5216	0.006224370561540127
0	5312	0.017588214948773384
0	5394	0.015038329176604748
0	5444	0.009174535982310772
0	5520	0.01396237500011921
0	5578	0.010648715309798717
0	5596	0.003303641453385353
0	5578	-0.003303277539089322
0	5596	0.003305866150185466
0	5580	-0.002942438703030348
0	5550	-0.005530022084712982
0	5536	-0.0025893638376146555
0	5500	-0.0066880518570542336
0	5506	0.0011201135348528624
0	5504	-0.0003750468895304948
0	5458	-0.008662248030304909
0	5508	0.009445487521588802
0	5462	-0.008704428561031818
0	5492	0.0056795235723257065
0	5486	-0.001134172547608614
0	5468	-0.003393238876014948
0	5612	0.02704225294291973
0	5676	0.011960530653595924
0	5662	-0.0026020370423793793
0	5656	-0.001109426375478506
0	5640	-0.002943593543022871
0	5614	-0.0047617885284125805
0	5498	-0.02116093412041664
0	5518	0.003638083580881357
0	5492	-0.004717494826763868
0	5468	-0.004346461035311222
0	5506	0.006871443707495928
0	5510	0.000722465047147125
0	5528	0.003248823806643486
0	5506	-0.003968778997659683
0	6174	0.12051670998334885
0	7674	0.2696548402309418
0	8191	0.09179796278476715
1	6624	-0.27399736642837524
0	4588	-0.35388386249542236
0	4856	0.04685123637318611
0	4962	0.018605956807732582
0	5030	0.011976118199527264
0	5134	0.018367094919085503
0	5178	0.007787748705595732
0	5238	0.01064012199640274
0	5320	0.01456043403595686
0	5364	0.00782162044197321
0	5412	0.008537634275853634
0	5452	0.007118070963770151
0	5564	0.01993461884558201
0	5592	0.004980817902833223
0	5682	0.016011670231819153
0	5770	0.01565529778599739
0	5868	0.017423151060938835
0	5990	0.02166282944381237
0	6090	0.017719710245728493
0	6170	0.014136024750769138
0	6174	0.0007040146156214178
0	6174	0.0
0	6038	-0.02375006675720215
0	5918	-0.02088663913309574
0	5750	-0.029171563684940338
0	5430	-0.05548780411481857
0	5182	-0.04302741959691048
0	4990	-0.033374086022377014
0	4838	-0.026603657752275467
0	4792	-0.00818655826151371
0	4764	-0.005085669457912445
0	4814	0.009184985421597958
0	4892	0.014308775775134563
0	4966	0.013572005555033684
0	5046	0.014672079123556614
0	5100	0.009902684018015862
0	5194	0.017241591587662697
0	5190	-0.0007336129201576114
0	5256	0.01210816577076912
0	5274	0.0033035201486200094
0	5302	0.005141640082001686
0	5374	0.013230266980826855
0	5416	0.007721344940364361
0	5416	0.0
0	5418	0.0003684145922306925
0	5444	0.004797165747731924
0	5464	0.0036975410766899586
0	5502	0.007042862940579653
0	5482	-0.0037179789505898952
0	5502	0.0037320395931601524
0	5502	0.0
0	5518	0.0030107256025075912
0	5492	-0.004912643227726221
0	5550	0.010996789671480656
0	5544	-0.0011402508243918419
0	5520	-0.004566963296383619
0	5556	0.0068465364165604115
0	5530	-0.0049330247566103935
0	5532	0.0003781719133257866
0	5508	-0.004518298897892237
0	5580	0.013494264334440231
0	5698	0.022003432735800743
0	5696	-0.00037090154364705086
0	5652	-0.008119478821754456
0	5648	-0.0007350328960455954
0	5556	-0.01684364676475525
0	5500	-0.01022420171648264
0	5470	-0.0054670702666044235
0	5482	0.0021831148769706488
0	5504	0.003996899351477623
0	5488	-0.002902792766690254
0	5510	0.003986855503171682
0	5530	0.0036214389838278294
0	5476	-0.009771161712706089
0	6170	0.1255320906639099
0	7166	0.1793452799320221
0	8191	0.18267905712127686
1	6404	-0.3134079575538635
0	4524	-0.32798898220062256
0	4892	0.06456177681684494
0	5002	0.01936744712293148
0	5054	0.009182466194033623
0	5196	0.02514386922121048
0	5242	0.008159452117979527
0	5334	0.01634867675602436
0	5382	0.00854036770761013
0	5446	0.01139648538082838
0	5488	0.007483829278498888
0	5522	0.006059849634766579
0	5620	0.017467664554715157
0	5674	0.009618639014661312
0	5776	0.018158406019210815
0	5848	0.012811767868697643
0	5970	0.02168927527964115
0	6084	0.020228905603289604
0	6218	0.023716675117611885
0	6290	0.012693711556494236
0	6314	0.004211684223264456
0	6252	-0.010826731100678444
0	6080	-0.029901430010795593
0	5936	-0.024950476363301277
0	5688	-0.04285936430096626
0	5438	-0.04316074773669243
0	5106	-0.05734783411026001
0	4904	-0.0349668525159359
0	4762	-0.024761538952589035
0	4694	-0.012025677599012852
0	4708	0.002527988515794277
0	4682	-0.004743256140500307
0	4794	0.020412875339388847
0	4850	0.010212517343461514
0	4962	0.020443925634026527
0	5014	0.009497138671576977
0	5182	0.030717099085450172
0	5266	0.015364167280495167
0	5394	0.023421775549650192
0	5328	-0.012075969018042088
0	5302	-0.004760625772178173
0	5268	-0.0062325093895196915
0	5278	0.0018359404057264328
0	5280	0.00036795821506530046
0	5334	0.009958934970200062
0	5406	0.01331475842744112
0	5394	-0.0022251892369240522
0	5406	0.002233139704912901
0	5334	-0.01345542911440134
0	5386	0.0097716199234128
0	5370	-0.0030237745959311724
0	5416	0.00874535832554102
0	5424	0.0015290324809029698
0	5380	-0.008444973267614841
0	5460	0.015409310348331928
0	5442	-0.0034721773117780685
0	5448	0.001157362712547183
0	5508	0.011548233218491077
0	5492	-0.003067641519010067
0	5602	0.0209920983761549
0	5672	0.01328189205378294
0	5686	0.0026402806397527456
0	5650	-0.0067467112094163895
0	5616	-0.006338001694530249
0	5572	-0.008163264952600002
0	5530	-0.007762922439724207
0	5458	-0.013265695422887802
0	5494	0.006621623411774635
0	5484	-0.0018367720767855644
0	5548	0.01174886804074049
0	5536	-0.0021999510936439037
0	5584	0.008787238970398903
0	5562	-0.004019733052700758
0	6234	0.12257256358861923
0	7190	0.17336848378181458
0	8058	0.15566343069076538
1	6732	-0.23408813774585724
0	4580	-0.3769398629665375
0	4950	0.06512250006198883
0	5134	0.03245836868882179
0	5216	0.014486609026789665
0	5300	0.014853411354124546
0	5386	0.01521746814250946
0	5424	0.006725504994392395
0	5488	0.01132422685623169
0	5530	0.00743029685690999
0	5570	0.007072802633047104
0	5614	0.007774492725729942
0	5624	0.0017658276483416557
0	5734	0.019409025087952614
0	5778	0.007757586892694235
0	5848	0.01233393233269453
0	5934	0.015138713642954826
0	6020	0.015113526955246925
0	6142	0.021389499306678772
0	6198	0.009785533882677555
0	6298	0.017406441271305084
0	6284	-0.0024250822607427835
0	6156	-0.02207150124013424
0	6042	-0.01958179660141468
0	5848	-0.033229418098926544
0	5608	-0.04103546217083931
0	5324	-0.04855198785662651
0	5086	-0.04074319079518318
0	4920	-0.028604906052350998
0	4794	-0.021998999640345573
0	4774	-0.0035595211666077375
0	4754	-0.003601354081183672
0	4814	0.010792790912091732
0	4890	0.01368202455341816
0	4884	-0.0010817437432706356
0	4984	0.018065107986330986
0	5046	0.011221719905734062
0	5152	0.01922495663166046
0	5218	0.011989971622824669
0	5290	0.01310138963162899
0	5344	0.00984036736190319
0	5404	0.010948771610856056
0	5436	0.005846813321113586
0	5440	0.0007316895062103868
0	5444	0.0007330034859478474
0	5462	0.0033052589278668165
0	5428	-0.00625805277377367
0	5472	0.00812387652695179
0	5422	-0.00926291849464178
0	5408	-0.0026052005123347044
0	5414	0.0011220126179978251
0	5366	-0.009025836363434792
0	5360	-0.0011347589315846562
0	5348	-0.002280964283272624
0	5462	0.021764863282442093
0	5508	0.008803940378129482
0	5538	0.005745365284383297
0	5526	-0.002295010956004262
0	5470	-0.010680093429982662
0	5456	-0.002660720143467188
0	5386	-0.013248041272163391
0	5364	-0.004147656261920929
0	5404	0.007512395735830069
0	5378	-0.004865087103098631
0	5444	0.012312360107898712
0	5434	-0.001859035575762391
0	5482	0.008898556232452393
0	5428	-0.009983976371586323
0	6088	0.12181916832923889
0	6922	0.15311555564403534
0	8028	0.20104460418224335
1	6414	-0.28869199752807617
0	4460	-0.34741485118865967
0	4886	0.07618207484483719
0	5030	0.025837011635303497
0	5142	0.02014533430337906
0	5238	0.017300622537732124
0	5266	0.005051780492067337
0	5340	0.013367695733904839
0	5378	0.00686788372695446
0	5428	0.009038322605192661
0	5488	0.010845071636140347
0	5546	0.010475869290530682
0	5660	0.02056746929883957
0	5666	0.0010804710909724236
0	5770	0.01870526187121868
0	5838	0.012211182154715061
0	5928	0.016132887452840805
0	6078	0.02682371437549591
0	6174	0.017105184495449066
0	6262	0.015613172203302383
0	6268	0.0010590477613732219
0	6204	-0.011236744001507759
0	6072	-0.023067781701683998
0	5848	-0.03898771107196808
0	5644	-0.0354236364364624
0	5346	-0.051683470606803894
0	5084	-0.04547558352351189
0	4878	-0.0358269177377224
0	4764	-0.01996660605072975
0	4742	-0.0039023696444928646
0	4744	0.00036179012386128306
0	4816	0.013156932778656483
0	4870	0.009846348315477371
0	4962	0.01677689142525196
0	5012	0.009121646173298359
0	5074	0.011319790035486221
0	5144	0.012793177738785744
0	5218	0.013534273952245712
0	5288	0.012812222354114056
0	5380	0.01684817112982273
0	5410	0.005495579447597265
0	5460	0.009163662791252136
0	5484	0.00440087029710412
0	5516	0.005874146241694689
0	5578	0.011391613632440567
0	5536	-0.007725984789431095
0	5522	-0.002580106258392334
0	5524	0.0003695081686601043
0	5498	-0.0048200516030192375
0	5498	0.0
0	5484	-0.0026187151670455933
0	5490	0.0011278195306658745
0	5466	-0.00453155068680644
0	5492	0.004927975591272116
0	5604	0.02127605676651001
0	5626	0.004180284217000008
0	5650	0.004552236758172512
0	5592	-0.01096201129257679
0	5494	-0.018439076840877533
0	5530	0.006742667406797409
0	5460	-0.013046558015048504
0	5452	-0.0014844320248812437
0	5500	0.008871693164110184
0	5470	-0.005523369647562504
0	5522	0.009544086642563343
0	5566	0.0080506457015872
0	5534	-0.00583749869838357
0	6322	0.14340831339359283
0	7296	0.17607924342155457
0	7948	0.11645907163619995
1	6158	-0.31491169333457947
0	4572	-0.2778037190437317
0	4944	0.06549910455942154
0	5132	0.03320694342255592
0	5188	0.009913844056427479
0	5300	0.019873425364494324
0	5284	-0.0028430293314158916
0	5390	0.01886165700852871
0	5434	0.007835594937205315
0	5452	0.0032066889107227325
0	5512	0.010691883973777294
0	5568	0.0099774319678545
0	5596	0.0049864063039422035
0	5662	0.011744608171284199
0	5750	0.015643702819943428
0	5836	0.015274949371814728
0	5918	0.014546400867402554
0	6048	0.023024877533316612
0	6142	0.01660405844449997
0	6198	0.009854181669652462
0	6216	0.003155053360387683
0	6202	-0.0024431387428194284
0	6030	-0.029885323718190193
0	5896	-0.02321150153875351
0	5614	-0.048728227615356445
0	5346	-0.046284571290016174
0	5152	-0.033546991646289825
0	4956	-0.033967625349760056
0	4824	-0.02305811084806919
0	4798	-0.004608076997101307
0	4798	0.0
0	4842	0.008011750876903534
0	4936	0.017088010907173157
0	4994	0.010544177144765854
0	5034	0.007277932018041611
0	5088	0.009834393858909607
0	5180	0.01677648350596428
0	5282	0.018611781299114227
0	5334	0.009494596160948277
0	5380	0.008404180407524109
0	5458	0.014256817288696766
0	5502	0.008044954389333725
0	5536	0.006219056900590658
0	5556	0.003659607609733939
0	5530	-0.004760568030178547
0	5594	0.011734075844287872
0	5614	0.0036723301745951176
0	5536	-0.014348786324262619
0	5546	0.0018453816883265972
0	5606	0.011113031767308712
0	5666	0.011153798550367355
0	5584	-0.015295653603971004
0	5526	-0.010860609821975231
0	5524	-0.00037568563129752874
0	5490	-0.006401566322892904
0	5422	-0.012813104316592216
0	5370	-0.009793581441044807
0	5388	0.003385452553629875
0	5350	-0.0071277623064816
0	5372	0.0041130720637738705
0	5380	0.0014903314877301455
0	5408	0.005197376478463411
0	5466	0.010728422552347183
0	5454	-0.0022124438546597958
0	6246	0.14560964703559875
0	7712	0.26753777265548706
0	7874	0.029099704697728157
1	5256	-0.46280038356781006
0	5880	0.11032532155513763
0	4956	-0.16284233331680298
0	4508	-0.07915100455284119
0	4580	0.012792267836630344
0	4902	0.05752396956086159
0	5052	0.02689843252301216
0	5182	0.023382415995001793
0	5246	0.011535411700606346
0	5432	0.03359502926468849
0	5468	0.006509396247565746
0	5520	0.009406316094100475
0	5566	0.0083222771063447
0	5702	0.024610931053757668
0	5802	0.01809234358370304
0	5952	0.0271028820425272
0	6048	0.01730145514011383
0	6234	0.033416375517845154
0	6382	0.02647143043577671
0	6570	0.03343450650572777
0	6458	-0.01977773755788803
0	6210	-0.043519459664821625
0	5894	-0.05517466366291046
0	5668	-0.03934083878993988
0	5382	-0.049702249467372894
0	5112	-0.0469287745654583
0	4950	-0.028215130791068077
0	4766	-0.032140862196683884
0	4608	-0.027839120477437973
0	4598	-0.0017946877051144838
0	4626	0.005125576630234718
0	4724	0.018008748069405556
0	4816	0.017026737332344055
0	4926	0.020375652238726616
0	4970	0.008129280060529709
0	5002	0.005898037925362587
0	5132	0.023946065455675125
0	5208	0.013992365449666977
0	5280	0.013253810815513134
0	5268	-0.0022085076197981834
0	5238	-0.0055268295109272
0	5280	0.007748505566269159
0	5352	0.013302786275744438
0	5380	0.005180133040994406
0	5488	0.020020266994833946
0	5556	0.01262985821813345
0	5534	-0.004096173215657473
0	5518	-0.002988568739965558
0	5448	-0.013133537024259567
0	5420	-0.00528428191319108
0	5368	-0.009885179810225964
0	5420	0.009953930974006653
0	5538	0.022702204063534737
0	5530	-0.0015426543541252613
0	5582	0.010036155581474304
0	5556	-0.005011629778891802
0	5504	-0.009994746185839176
0	5508	0.0007661074050702155
0	5460	-0.009149945341050625
0	5528	0.012892624363303185
0	5522	-0.0011309373658150434
0	5478	-0.008247112855315208
0	5548	0.013058888725936413
0	5562	0.0025999429635703564
0	5442	-0.02219783328473568
0	5958	0.09517368674278259
0	7320	0.24974635243415833
0	8191	0.15760521590709686
1	6022	-0.3855383098125458
0	4662	-0.240680992603302
0	4902	0.04262549430131912
0	5034	0.023490749299526215
0	5106	0.012831861153244972
0	5170	0.01142279151827097
0	5258	0.015725987032055855
0	5304	0.008231679908931255
0	5422	0.0211478378623724
0	5430	0.0014347117394208908
0	5498	0.012201467528939247
0	5546	0.008610226213932037
0	5566	0.003584893187507987
0	5692	0.022558139637112617
0	5736	0.007864680141210556
0	5806	0.012497247196733952
0	5876	0.012476755306124687
0	6000	0.02206313982605934
0	6148	0.026264263316988945
0	6174	0.004596482031047344
0	6214	0.007043865509331226
0	6138	-0.013324372470378876
0	6062	-0.013277041725814342
0	5896	-0.028908949345350266
0	5630	-0.0462118424475193
0	5378	-0.04375886172056198
0	5128	-0.04345785453915596
0	4900	-0.039705805480480194
0	4780	-0.021026931703090668
0	4718	-0.01102751586586237
0	4732	0.0025424344930797815
0	4774	0.0076873330399394035
0	4876	0.01865648850798607
0	4940	0.01170788798481226
0	4978	0.006955545395612717
0	5092	0.020882945507764816
0	5104	0.0021992523688822985
0	5192	0.016143037006258965
0	5256	0.011748436838388443
0	5298	0.00771775096654892
0	5358	0.011034280061721802
0	5396	0.00699438014999032
0	5416	0.0036846438888460398
0	5432	0.0029504329431802034
0	5488	0.010343044064939022
0	5526	0.00702922698110342
0	5506	-0.003705991432070732
0	5550	0.00817185640335083
0	5488	-0.011547056958079338
0	5516	0.0052362545393407345
0	5520	0.000751117302570492
0	5520	0.0
0	5536	0.0030293469317257404
0	5494	-0.007978521287441254
0	5528	0.006475286092609167
0	5496	-0.006098335608839989
0	5468	-0.0053320471197366714
0	5562	0.01786189340054989
0	5634	0.013624322600662708
0	5688	0.010163494385778904
0	5622	-0.012346910312771797
0	5606	-0.0029766703955829144
0	5572	-0.006292955484241247
0	5480	-0.016955191269516945
0	5490	0.0018368620658293366
0	5502	0.0021973461844027042
0	5514	0.0021918609272688627
0	5544	0.0054660071618855
0	5582	0.00690883956849575
0	5612	0.005443592090159655
0	5530	-0.014850948005914688
0	6244	0.1291777789592743
0	7522	0.23004092276096344
0	8191	0.11891783028841019
1	5782	-0.4213232398033142
0	4674	-0.1934526413679123
0	4998	0.05685108155012131
0	5062	0.011263309046626091
0	5114	0.009177712723612785
0	5174	0.01061302050948143
0	5262	0.015597213990986347
0	5316	0.009585629217326641
0	5374	0.010308117605745792
0	5416	0.007471669930964708
0	5448	0.005695335101336241
0	5492	0.007834804244339466
0	5532	0.007122718263417482
0	5626	0.016732031479477882
0	5690	0.011387697421014309
0	5790	0.017787368968129158
0	5890	0.017776619642972946
0	6060	0.03017233870923519
0	6172	0.019824998453259468
0	6272	0.017638448625802994
0	6302	0.005267007742077112
0	6270	-0.005591570865362883
0	6128	-0.024702096357941628
0	5986	-0.02461445890367031
0	5746	-0.041495926678180695
0	5532	-0.03696559742093086
0	5264	-0.046314697712659836
0	4994	-0.04673193767666817
0	4844	-0.0261507797986269
0	4718	-0.02231391705572605
0	4706	-0.0021696158219128847
0	4716	0.0018198140896856785
0	4770	0.00982449296861887
0	4858	0.016032453626394272
0	4906	0.008755821734666824
0	5002	0.017533820122480392
0	5088	0.01572384499013424
0	5142	0.009883592836558819
0	5240	0.017955953255295753
0	5288	0.008801955729722977
0	5310	0.004037388600409031
0	5368	0.010653017088770866
0	5378	0.0018381226109340787
0	5434	0.010303208604454994
0	5408	-0.004789272323250771
0	5430	0.004059490282088518
0	5418	-0.002219181274995208
0	5420	0.0003709428128786385
0	5424	0.0007448326796293259
0	5414	-0.0018707674462348223
0	5456	0.00789948832243681
0	5438	-0.0034035472199320793
0	5458	0.003801655024290085
0	5454	-0.0007635725196450949
0	5448	-0.0011492491466924548
0	5508	0.011514399200677872
0	5478	-0.005758083425462246
0	5494	0.003066779114305973
0	5548	0.010317419655621052
0	5624	0.014455997385084629
0	5654	0.005673723295331001
0	5590	-0.012032035738229752
0	5554	-0.006731153000146151
0	5508	-0.008559094741940498
0	5440	-0.012601771391928196
0	5466	0.004802482668310404
0	5492	0.0047888015396893024
0	5536	0.008084074594080448
0	5590	0.00989748165011406
0	5598	0.001463164808228612
0	5696	0.0178899597376585
0	5704	0.0014569826889783144
0	6502	0.1450381726026535
0	7806	0.2354017198085785
0	8191	0.06852322071790695
1	5838	-0.41199028491973877
0	4728	-0.19388985633850098
0	5044	0.05542012304067612
0	5130	0.015115917660295963
0	5204	0.013029162771999836
0	5252	0.008461778052151203
0	5328	0.013413894921541214
0	5352	0.004238709807395935
0	5392	0.007068927865475416
0	5472	0.01414302084594965
0	5502	0.005302883218973875
0	5540	0.006717222277075052
0	5582	0.007421587593853474
0	5636	0.009537097066640854
0	5740	0.01835823245346546
0	5786	0.008114448748528957
0	5926	0.02467699721455574
0	6064	0.02427654154598713
0	6174	0.01929316855967045
0	6288	0.019917186349630356
0	6262	-0.004520193208009005
0	6210	-0.008998875506222248
0	6058	-0.026195907965302467
0	5890	-0.028866805136203766
0	5692	-0.03396323323249817
0	5398	-0.0504031665623188
0	5216	-0.03125518932938576
0	5008	-0.03582027927041054
0	4930	-0.013548801653087139
0	4934	0.0007065764511935413
0	4912	-0.003962155431509018
0	4938	0.0047087231650948524
0	4974	0.006511515937745571
0	5000	0.004704746883362532
0	5066	0.011952191591262817
0	5098	0.005799833219498396
0	5202	0.01886701211333275
0	5216	0.0025417266879230738
0	5288	0.013082505203783512
0	5332	0.007999902591109276
0	5310	-0.004003348294645548
0	5382	0.013117142952978611
0	5412	0.005470725242048502
0	5388	-0.00438110763207078
0	5408	0.003656440880149603
0	5422	0.002564697526395321
0	5446	0.004406418651342392
0	5394	-0.009575368836522102
0	5414	0.003698042593896389
0	5404	-0.001857723225839436
0	5352	-0.009713332168757915
0	5386	0.006387215573340654
0	5324	-0.011707685887813568
0	5378	0.010244346223771572
0	5466	0.016748718917369843
0	5514	0.00914878211915493
0	5524	0.0019045926164835691
0	5484	-0.007603502366691828
0	5452	-0.006064510904252529
0	5432	-0.0037778618279844522
0	5410	-0.004142657853662968
0	5424	0.0026280221063643694
0	5388	-0.006737283430993557
0	5388	0.0
0	5432	0.008193464949727058
0	5446	0.002601102227345109
0	5522	0.01408990379422903
0	5780	0.047737110406160355
0	6868	0.2006121724843979
0	7818	0.17348217964172363
0	7548	-0.04857047274708748
1	4762	-0.49453866481781006
