0	5516	-0.004453406203538179
0	5470	-0.008532528765499592
0	5468	-0.0003709978482220322
0	5496	0.005193456541746855
0	5562	0.012231736443936825
0	5544	-0.0033320169895887375
0	5518	-0.0048046717420220375
0	5520	0.00036871794145554304
0	5564	0.008097960613667965
0	5418	-0.026822129264473915
0	5334	-0.015409640036523342
0	5240	-0.017239904031157494
0	5290	0.009190050885081291
0	5216	-0.013672308064997196
0	5182	-0.006303689908236265
0	5182	0.0
0	5268	0.015864428132772446
0	5152	-0.021349431946873665
0	5182	0.005531109403818846
0	5182	0.0
0	5156	-0.004807870369404554
0	5234	0.014452653005719185
0	5252	0.0033389395102858543
0	5342	0.016727587208151817
0	5334	-0.0014881690731272101
0	5258	-0.014149363152682781
0	5428	0.03169158473610878
0	5330	-0.01827676221728325
0	5360	0.005600010044872761
0	5408	0.008969838730990887
0	5342	-0.012343677692115307
0	5356	0.0026211992371827364
0	5334	-0.004121960140764713
0	5428	0.017626764252781868
0	5340	-0.016508666798472404
0	5326	-0.0026300300378352404
0	5342	0.003009857377037406
0	5276	-0.012429378926753998
0	5312	0.006790061481297016
0	5402	0.01700209081172943
0	5258	-0.027206087484955788
0	5358	0.018902162089943886
0	5252	-0.020021405071020126
0	5362	0.020781902596354485
0	5348	-0.0026425400283187628
0	5340	-0.0015084472252056003
0	5420	0.015069507993757725
0	5252	-0.03161579370498657
0	5326	0.013917273841798306
0	5330	0.0007516065961681306
0	5372	0.007884560152888298
0	5414	0.007873916998505592
0	5510	0.01797730289399624
0	5458	-0.009722049348056316
0	5418	-0.0074730971828103065
0	5472	0.010083405300974846
0	5538	0.012307768687605858
0	5436	-0.019008100032806396
0	5326	-0.020485443994402885
0	5302	-0.004470495041459799
0	5226	-0.014165890403091908
0	5182	-0.008207219652831554
0	5214	0.005975351668894291
0	5234	0.00373738631606102
0	5174	-0.011225724592804909
0	5308	0.025096764788031578
0	5930	0.11650703847408295
0	6080	0.02799377776682377
0	5474	-0.11253203451633453
1	4618	-0.15879690647125244
0	4860	0.04511222243309021
0	5382	0.0975494310259819
0	5492	0.02055332064628601
0	5520	0.005223945714533329
0	5370	-0.02795794978737831
0	5480	0.0204996969550848
0	5480	0.0
0	5444	-0.006700666155666113
0	5466	0.004089979454874992
0	5436	-0.005572410766035318
0	5502	0.012251261621713638
0	5518	0.0029676160775125027
0	5500	-0.003336422611027956
0	5448	-0.009639150463044643
0	5450	0.0003707594296429306
0	5496	0.008525781333446503
0	5408	-0.0163077712059021
0	5550	0.026335962116718292
0	5492	-0.01074936706572771
0	5474	-0.00333259254693985
0	5554	0.014795818366110325
0	5554	0.0
0	5542	-0.0022098361514508724
0	5498	-0.008086451329290867
0	5362	-0.02495412901043892
0	5348	-0.002565857023000717
0	5278	-0.01282615028321743
0	5262	-0.0029434128664433956
0	5252	-0.001848907209932804
0	5138	-0.0211064200848341
0	5118	-0.0036910357885062695
0	5130	0.0022111120633780956
0	5174	0.008119978941977024
0	5202	0.005177387036383152
0	5218	0.002964317100122571
0	5134	-0.0155772864818573
0	5236	0.018955819308757782
0	5222	-0.0026057178620249033
0	5318	0.017892422154545784
0	5350	0.005969629157334566
0	5348	-0.0003733014746103436
0	5388	0.007473189849406481
0	5290	-0.018324149772524834
0	5374	0.015726998448371887
0	5488	0.021353647112846375
0	5384	-0.019475899636745453
0	5310	-0.013867545872926712
0	5324	0.0026251969393342733
0	5428	0.019529050216078758
0	5358	-0.013149820268154144
0	5328	-0.005639733746647835
0	5304	-0.004518185742199421
0	5358	0.010181891731917858
0	5258	-0.018877185881137848
0	5288	0.005671720951795578
0	5486	0.037450823932886124
0	5226	-0.04913509637117386
0	5322	0.018148135393857956
0	5422	0.01889716275036335
0	5270	-0.028692958876490593
0	5392	0.02301076427102089
0	5326	-0.012427038513123989
0	5432	0.01993405446410179
0	5282	-0.028163019567728043
0	5344	0.011634889990091324
0	5430	0.016126008704304695
0	5310	-0.022459853440523148
0	5370	0.011224743910133839
0	5360	-0.0018690656870603561
0	5598	0.04447212815284729
0	5432	-0.030970536172389984
0	5390	-0.00783182680606842
0	5440	0.009323487989604473
0	5562	0.022728120908141136
0	5388	-0.032377712428569794
0	5350	-0.007075383793562651
0	5242	-0.020113229751586914
0	5262	0.0037262451369315386
0	5204	-0.010810273699462414
0	5236	0.005972601007670164
0	5134	-0.01905212551355362
0	5228	0.017579074949026108
0	5460	0.04340721666812897
0	6100	0.11966792494058609
0	5660	-0.08184219151735306
0	5172	-0.09056155383586884
1	4308	-0.16065053641796112
0	4886	0.1080872192978859
0	5294	0.07650478184223175
0	5384	0.01688956655561924
0	5388	0.0007501125219278038
0	5456	0.012752232141792774
0	5446	-0.001873805420473218
0	5406	-0.0074945660308003426
0	5434	0.005242136772722006
0	5562	0.023950600996613503
0	5426	-0.025426579639315605
0	5500	0.013825057074427605
0	5418	-0.015307266265153885
0	5464	0.00858390424400568
0	5434	-0.005602868739515543
0	5456	0.004108719062060118
0	5522	0.012321095913648605
0	5460	-0.011568459682166576
0	5512	0.009708737954497337
0	5502	-0.0018656252650544047
0	5566	0.011928725056350231
0	5544	-0.004092262126505375
0	5430	-0.021168343722820282
0	5536	0.01965535245835781
0	5482	-0.009994571097195148
0	5440	-0.007756901439279318
0	5336	-0.01918252930045128
0	5280	-0.010336934588849545
0	5292	0.0022262900602072477
0	5202	-0.01673526130616665
0	5174	-0.005205557681620121
0	5114	-0.011095221154391766
0	5226	0.020682012662291527
0	5098	-0.023646483197808266
0	5220	0.022577820345759392
0	5112	-0.020007658749818802
0	5166	0.010025124065577984
0	5258	0.01710948906838894
0	5244	-0.002606008667498827
0	5302	0.010809064842760563
0	5440	0.025759724900126457
0	5312	-0.02389099821448326
0	5444	0.024666443467140198
0	5382	-0.011583877727389336
0	5386	0.0007477288017980754
0	5406	0.0037397625856101513
0	5338	-0.012719156220555305
0	5366	0.005243314895778894
0	5398	0.005995878018438816
0	5414	0.0030000749975442886
0	5310	-0.01951121911406517
0	5480	0.031944479793310165
0	5250	-0.04323633387684822
0	5310	0.011291779577732086
0	5294	-0.003015416208654642
0	5298	0.0007547455024905503
0	5340	0.007931911386549473
0	5308	-0.006043208763003349
0	5360	0.00981848407536745
0	5292	-0.012834063731133938
0	5342	0.00943147111684084
0	5368	0.004899189807474613
0	5312	-0.010535293258726597
0	5422	0.02068317122757435
0	5352	-0.013135343790054321
0	5314	-0.007124733179807663
0	5282	-0.005992210004478693
0	5290	0.0014969686744734645
0	5406	0.021701712161302567
0	5318	-0.016446752473711967
0	5454	0.025415176525712013
0	5424	-0.005605800077319145
0	5412	-0.0022407567594200373
0	5642	0.0429563969373703
0	5460	-0.03393665328621864
0	5396	-0.011928281746804714
0	5352	-0.008201202377676964
0	5320	-0.005963992327451706
0	5236	-0.015659954398870468
0	5158	-0.014556040056049824
0	5300	0.026541724801063538
0	5132	-0.03140343353152275
0	5260	0.023978419601917267
0	5252	-0.0014985576272010803
0	5750	0.09331901371479034
0	6300	0.10277044028043747
0	5502	-0.14818574488162994
0	4870	-0.11724257469177246
0	4168	-0.13058197498321533
0	4810	0.12031032890081406
0	5140	0.06202851980924606
0	5452	0.058719463646411896
0	5462	0.0018810427282005548
0	5448	-0.002630985341966152
0	5446	-0.0003757938393391669
0	5464	0.003380154725164175
0	5448	-0.0030017634853720665
0	5486	0.0071217953227460384
0	5442	-0.008236204273998737
0	5502	0.011228665709495544
0	5524	0.004112456925213337
0	5474	-0.009342418983578682
0	5468	-0.0011207411298528314
0	5502	0.0063486527651548386
0	5522	0.0037377590779215097
0	5462	-0.011208946816623211
0	5526	0.011951297521591187
0	5574	0.008953776210546494
0	5448	-0.023466600105166435
0	5520	0.013391860760748386
0	5530	0.0018558154115453362
0	5536	0.00111190730240196
0	5394	-0.026249630376696587
0	5470	0.01403750665485859
0	5366	-0.01918347179889679
0	5282	-0.015531012788414955
0	5284	0.00037212070310488343
0	5252	-0.005961992312222719
0	5224	-0.0052043963223695755
0	5072	-0.028068793937563896
0	5208	0.025073746219277382
0	5130	-0.014374524354934692
0	5118	-0.0022158483043313026
0	5230	0.020725132897496223
0	5110	-0.02223539911210537
0	5254	0.026737967506051064
0	5274	0.0037184397224336863
0	5288	0.0026057178620249033
0	5336	0.008944876492023468
0	5292	-0.008204873651266098
0	5470	0.0332358255982399
0	5296	-0.032499875873327255
0	5380	0.015707002952694893
0	5346	-0.006361084990203381
0	5476	0.024345481768250465
0	5344	-0.024727128446102142
0	5366	0.00412422651425004
0	5378	0.002251829719170928
0	5364	-0.002630359260365367
0	5366	0.00037596342735923827
0	5390	0.004515918903052807
0	5214	-0.03314584121108055
0	5348	0.02528715319931507
0	5338	-0.0018876472022384405
0	5362	0.00453411927446723
0	5310	-0.009824171662330627
0	5362	0.009822440333664417
0	5402	0.007552014198154211
0	5356	-0.008676625788211823
0	5326	-0.005653976462781429
0	5336	0.0018816563533619046
0	5282	-0.010152793489396572
0	5364	0.015402532182633877
0	5324	-0.007501875516027212
0	5382	0.010871331207454205
0	5348	-0.006362037267535925
0	5388	0.007480363827198744
0	5538	0.028031446039676666
0	5426	-0.020897600799798965
0	5464	0.00708629097789526
0	5388	-0.014157445169985294
0	5542	0.02870206907391548
0	5396	-0.02716953121125698
0	5412	0.002977187279611826
0	5274	-0.025667734444141388
0	5182	-0.017133280634880066
0	5332	0.02796281687915325
0	5152	-0.033562470227479935
0	5324	0.032115913927555084
0	5182	-0.026520906016230583
0	5350	0.03141282871365547
0	5958	0.11371287703514099
0	6090	0.024573683738708496
0	5574	-0.09562048316001892
1	4626	-0.17541910707950592
0	4712	0.015986120328307152
0	5170	0.08545201271772385
0	5422	0.047073472291231155
0	5486	0.011953679844737053
0	5380	-0.01978226937353611
0	5496	0.02164125256240368
0	5452	-0.008200591430068016
0	5452	0.0
0	5460	0.0014886305434629321
0	5404	-0.010411631315946579
0	5466	0.0115255918353796
0	5440	-0.004829781129956245
0	5428	-0.0022284123115241528
0	5484	0.010406342335045338
0	5424	-0.011145648546516895
0	5442	0.0033445232547819614
0	5446	0.0007429788238368928
0	5568	0.022674333304166794
0	5488	-0.014852588064968586
0	5470	-0.0033402612898498774
0	5518	0.008896577171981335
0	5502	-0.002959382487460971
0	5644	0.026237018406391144
0	5450	-0.035736653953790665
0	5388	-0.011412163265049458
0	5388	0.0
0	5328	-0.011027520522475243
0	5278	-0.009225206449627876
0	5216	-0.011496668681502342
0	5216	0.0
0	5178	-0.007036255206912756
0	5220	0.0077546099200844765
0	5250	0.005537303164601326
0	5076	-0.032150380313396454
0	5210	0.024822169914841652
0	5234	0.004450433421880007
0	5180	-0.010029717348515987
0	5254	0.013767613098025322
0	5248	-0.001117665320634842
0	5312	0.011937477625906467
0	5296	-0.002986077219247818
0	5372	0.01419888436794281
0	5390	0.0033643182832747698
0	5386	-0.0007478033076040447
0	5384	-0.00037413014797493815
0	5408	0.004490681923925877
0	5350	-0.010854783467948437
0	5380	0.005617907270789146
0	5314	-0.012373917736113071
0	5370	0.010510510765016079
0	5308	-0.011643921956419945
0	5298	-0.0018805240979418159
0	5366	0.012803936377167702
0	5268	-0.01848498545587063
0	5350	0.015484748408198357
0	5322	-0.005288740154355764
0	5382	0.011337725445628166
0	5306	-0.014356235973536968
0	5250	-0.010576414875686169
0	5364	0.021525951102375984
0	5366	0.00037729679024778306
0	5324	-0.007913877256214619
0	5238	-0.016194026917219162
0	5394	0.029377423226833344
0	5354	-0.007517667021602392
0	5422	0.012768514454364777
0	5454	0.006001650355756283
0	5414	-0.007489234209060669
0	5498	0.015711702406406403
0	5434	-0.011952191591262817
0	5330	-0.019407570362091064
0	5384	0.010074877180159092
0	5182	-0.037684693932533264
0	5270	0.016438355669379234
0	5154	-0.021684404462575912
0	5182	0.005241679027676582
0	5286	0.01949658803641796
0	5264	-0.00412592850625515
0	5786	0.09796807169914246
0	6082	0.055389221757650375
0	5610	-0.08793283253908157
0	5048	-0.10450370609760284
0	4380	-0.12440713495016098
0	4810	0.08057564496994019
0	5134	0.06088699400424957
0	5618	0.09107787907123566
0	5454	-0.03080390766263008
0	5406	-0.009011715650558472
0	5474	0.01275861170142889
0	5374	-0.01873641461133957
0	5452	0.014613492414355278
0	5468	0.0029960302636027336
0	5484	0.0029933396726846695
0	5466	-0.003362349234521389
0	5462	-0.0007468538824468851
0	5530	0.01268798764795065
0	5460	-0.013052396476268768
0	5522	0.011560262180864811
0	5456	-0.01229783147573471
0	5494	0.007082417141646147
0	5486	-0.0014904795680195093
0	5518	0.00595614779740572
0	5538	0.003719500033184886
0	5498	-0.007422619499266148
0	5602	0.01927163079380989
0	5482	-0.022175133228302002
0	5458	-0.004426846280694008
0	5478	0.003685141447931528
0	5274	-0.037539102137088776
0	5290	0.0029535191133618355
0	5246	-0.008161952719092369
0	5182	-0.011898712255060673
0	5182	0.0
0	5138	-0.008133187890052795
0	5172	0.006272059865295887
0	5174	0.00036885851295664907
0	5170	-0.0007397361332550645
0	5234	0.011856535449624062
0	5182	-0.009643678553402424
0	5300	0.021923305466771126
0	5240	-0.011152555234730244
0	5338	0.01823979802429676
0	5242	-0.017881980165839195
0	5300	0.010819952934980392
0	5370	0.01307205855846405
0	5320	-0.009342534467577934
0	5454	0.025070784613490105
0	5332	-0.02282649464905262
0	5370	0.007118326146155596
0	5430	0.011245501227676868
0	5446	0.0029999997932463884
0	5408	-0.00712678162381053
0	5222	-0.03490772470831871
0	5362	0.026326676830649376
0	5324	-0.007151909172534943
0	5338	0.0026395174209028482
0	5332	-0.0011322463396936655
0	5332	0.0
0	5384	0.009829619899392128
0	5306	-0.014734217897057533
0	5358	0.009821821935474873
0	5318	-0.007549923378974199
0	5354	0.0067891222424805164
0	5340	-0.0026373625732958317
0	5406	0.012417529709637165
0	5318	-0.016532445326447487
0	5282	-0.006757179740816355
0	5294	0.002250815974548459
0	5402	0.02024974673986435
0	5438	0.006740647368133068
0	5428	-0.0018707906128838658
0	5478	0.009343000128865242
0	5478	0.0
0	5524	0.008575476706027985
0	5538	0.0026062997058033943
0	5356	-0.03384660929441452
0	5344	-0.0022311469074338675
0	5344	0.0
0	5110	-0.043533805757761
0	5152	0.00782637856900692
0	5242	0.016799820587038994
0	5236	-0.0011214114492759109
0	5262	0.0048646628856658936
0	5636	0.06995885074138641
0	6174	0.1004643514752388
0	5632	-0.10067861527204514
0	5182	-0.08343737572431564
0	4416	-0.14216074347496033
0	4604	0.03508946672081947
0	5078	0.08890166878700256
0	5458	0.0713731199502945
0	5460	0.0003754129575099796
0	5386	-0.013877948746085167
0	5386	0.0
0	5494	0.020244432613253593
0	5454	-0.007493817713111639
0	5380	-0.013851798139512539
0	5422	0.00785702746361494
0	5408	-0.0026169202756136656
0	5522	0.02130841091275215
0	5442	-0.01494544930756092
0	5472	0.005604054778814316
0	5448	-0.004483411088585854
0	5478	0.005605311132967472
0	5490	0.0022427670191973448
0	5470	-0.0037390633951872587
0	5530	0.011209226213395596
0	5496	-0.006344546563923359
0	5566	0.013049962930381298
0	5584	0.0033462224528193474
0	5506	-0.014461583457887173
0	5534	0.005182881839573383
0	5480	-0.00997721217572689
0	5338	-0.026201196014881134
0	5400	0.011460965499281883
0	5224	-0.03269026055932045
0	5202	-0.004096630960702896
0	5172	-0.005585621576756239
0	5152	-0.0037063576746731997
0	5182	0.005540780257433653
0	5182	0.0
0	5154	-0.005176876671612263
0	5140	-0.002593328943476081
0	5222	0.015212605707347393
0	5200	-0.004085574299097061
0	5206	0.0011162790469825268
0	5282	0.014161314815282822
0	5270	-0.0022373588290065527
0	5314	0.008211406879127026
0	5364	0.009336602874100208
0	5366	0.0003738317755050957
0	5434	0.012716301716864109
0	5342	-0.017208483070135117
0	5280	-0.011604691855609417
0	5374	0.017615970224142075
0	5374	0.0
0	5342	-0.006004878785461187
0	5334	-0.0015029871137812734
0	5356	0.004137412179261446
0	5366	0.0018831208581104875
0	5400	0.006411384325474501
0	5364	-0.006793051026761532
0	5308	-0.010578279383480549
0	5390	0.01550641655921936
0	5392	0.0003780813713092357
0	5310	-0.01550211664289236
0	5364	0.010203181765973568
0	5270	-0.01774299144744873
0	5340	0.013204723596572876
0	5298	-0.007913479581475258
0	5440	0.026735618710517883
0	5298	-0.026692397892475128
0	5388	0.016902467235922813
0	5362	-0.004875365644693375
0	5458	0.01798561029136181
0	5462	0.0007481949287466705
0	5402	-0.011205039918422699
0	5532	0.02425946481525898
0	5476	-0.010433226823806763
0	5508	0.005955852102488279
0	5382	-0.02343023754656315
0	5420	0.007065560668706894
0	5266	-0.028636600822210312
0	5152	-0.021208511665463448
0	5182	0.005585621576756239
0	5208	0.004846647381782532
0	5250	0.007837283425033092
0	5304	0.010082276538014412
0	5550	0.04593895003199577
0	6208	0.12272913753986359
0	5660	-0.10167981684207916
0	5224	-0.0807686597108841
0	4426	-0.14795678853988647
0	4460	0.006338474340736866
0	5230	0.14438220858573914
0	5498	0.05030344799160957
0	5354	-0.02699696458876133
0	5412	0.01087445579469204
0	5398	-0.0026225412730127573
0	5512	0.021347248926758766
0	5358	-0.028799043968319893
0	5550	0.03592366352677345
0	5366	-0.03437281772494316
0	5458	0.017188765108585358
0	5498	0.00746891088783741
0	5476	-0.00410687830299139
0	5520	0.008213041350245476
0	5426	-0.01753317005932331
0	5534	0.02015777863562107
0	5414	-0.022389452904462814
0	5520	0.019788919016718864
0	5518	-0.0003730554599314928
0	5470	-0.008947879076004028
0	5542	0.013404825702309608
0	5550	0.001485828892327845
0	5614	0.011859611608088017
0	5546	-0.012569315731525421
0	5518	-0.005166178569197655
0	5450	-0.012529943138360977
0	5390	-0.011062626726925373
0	5392	0.0003706174611579627
0	5256	-0.02524377591907978
0	5268	0.002226951066404581
0	5222	-0.00849241204559803
0	5182	-0.007350238971412182
0	5152	-0.005514300428330898
0	5016	-0.025051269680261612
0	5110	0.017350856214761734
0	5126	0.0029588353354483843
0	5214	0.016300924122333527
0	5168	-0.008536646142601967
0	5254	0.01597859524190426
0	5286	0.00595644349232316
0	5278	-0.0014898504596203566
0	5338	0.011186378076672554
0	5306	-0.005972005892544985
0	5326	0.0037364554591476917
0	5358	0.005985559429973364
0	5334	-0.00449107401072979
0	5402	0.012740603648126125
0	5344	-0.010867799632251263
0	5468	0.023260176181793213
0	5326	-0.026644982397556305
0	5396	0.013146691955626011
0	5304	-0.017294317483901978
0	5352	0.009037051349878311
0	5294	-0.01093775499612093
0	5286	-0.0015110494568943977
0	5350	0.01210607960820198
0	5316	-0.00643541244789958
0	5308	-0.0015149220125749707
0	5348	0.00757862813770771
0	5306	-0.007952938787639141
0	5378	0.013630339875817299
0	5300	-0.014751680195331573
0	5402	0.019276319071650505
0	5288	-0.021510247141122818
0	5270	-0.003390554105862975
0	5416	0.027473559603095055
0	5454	0.007137669250369072
0	5416	-0.007126959972083569
0	5406	-0.0018726123962551355
0	5430	0.004490009509027004
0	5544	0.02130841091275215
0	5410	-0.025005286559462547
0	5326	-0.01566793955862522
0	5296	-0.005594997201114893
0	5134	-0.030218619853258133
0	5182	0.008966152556240559
0	5142	-0.007478872314095497
0	5230	0.016480224207043648
0	5182	-0.00899561494588852
0	5294	0.02102733589708805
0	5604	0.058212317526340485
0	6258	0.12264952808618546
0	5788	-0.0876200869679451
0	4996	-0.1472502052783966
0	4362	-0.11809264123439789
0	4588	0.042339012026786804
0	5284	0.13101258873939514
0	5366	0.015438491478562355
0	5360	-0.0011292345589026809
0	5456	0.018066393211483955
0	5400	-0.010528822429478168
0	5486	0.016167033463716507
0	5402	-0.01577267423272133
0	5462	0.011266195215284824
0	5506	0.008252887986600399
0	5422	-0.015732301399111748
0	5524	0.019102793186903
0	5438	-0.016099240630865097
0	5478	0.0074869911186397076
0	5438	-0.007483629509806633
0	5478	0.0074832565151154995
0	5496	0.0033688517287373543
0	5542	0.00860467180609703
0	5548	0.001120838918723166
0	5568	0.0037302763666957617
0	5654	0.01599702425301075
0	5522	-0.024481922388076782
0	5526	0.0007401377079077065
0	5568	0.00775728328153491
0	5512	-0.010318523272871971
0	5506	-0.0011040777899324894
0	5358	-0.027250297367572784
0	5410	0.009627609513700008
0	5274	-0.025238778442144394
0	5132	-0.026307014748454094
0	5152	0.003687678137794137
0	5076	-0.013964769430458546
0	5154	0.014350545592606068
0	5152	-0.00036844174610450864
0	5156	0.0007378258742392063
0	5252	0.01774054393172264
0	5182	-0.012947618030011654
0	5238	0.010377544909715652
0	5220	-0.0033390221651643515
0	5312	0.01709168776869774
0	5338	0.0048360698856413364
0	5318	-0.0037219920195639133
0	5402	0.01565236784517765
0	5326	-0.014164834283292294
0	5382	0.01044711098074913
0	5354	-0.005225375294685364
0	5470	0.02166469395160675
0	5378	-0.01718512549996376
0	5294	-0.015706805512309074
0	5348	0.010113243944942951
0	5322	-0.004876036196947098
0	5330	0.0015034391544759274
0	5354	0.004515748471021652
0	5302	-0.00979468785226345
0	5340	0.007169630844146013
0	5336	-0.0007555152988061309
0	5354	0.003403461305424571
0	5242	-0.02117762714624405
0	5274	0.006057164631783962
0	5350	0.014385765418410301
0	5304	-0.008695214055478573
0	5334	0.005665365606546402
0	5354	0.0037707865703850985
0	5322	-0.006025684531778097
0	5416	0.017681581899523735
0	5394	-0.0041315071284770966
0	5578	0.03452373668551445
0	5354	-0.041925057768821716
0	5442	0.016458647325634956
0	5532	0.01680944301187992
0	5454	-0.014548257924616337
0	5526	0.013419482856988907
0	5440	-0.01600814051926136
0	5402	-0.007071697153151035
0	5322	-0.014880767092108727
0	5262	-0.011164728552103043
0	5248	-0.0026065909769386053
0	5218	-0.0055932579562067986
0	5182	-0.00671859085559845
0	5250	0.012699519284069538
0	5378	0.023919571191072464
0	5836	0.08555737137794495
0	6022	0.03463687002658844
0	5428	-0.11015775799751282
1	4486	-0.17455865442752838
0	4818	0.0618479885160923
0	5350	0.09942562133073807
0	5422	0.013456434942781925
0	5490	0.012694619596004486
0	5450	-0.007457399740815163
0	5486	0.0067074913531541824
0	5508	0.004094394389539957
0	5460	-0.008923592045903206
0	5486	0.004830439109355211
0	5432	-0.010022271424531937
0	5458	0.004825060721486807
0	5526	0.012614395469427109
0	5472	-0.010020536370575428
0	5492	0.0037086026277393103
0	5524	0.005931931082159281
0	5472	-0.009639864787459373
0	5516	0.008155900985002518
0	5476	-0.0074149142019450665
0	5516	0.0074132648296654224
0	5490	-0.004815231077373028
0	5572	0.015170763246715069
0	5556	-0.00295450072735548
0	5514	-0.007740889210253954
0	5578	0.011774228885769844
0	5384	-0.035604171454906464
0	5428	0.008068558759987354
0	5358	-0.012832420878112316
0	5254	-0.019121162593364716
0	5254	0.0
0	5216	-0.007027146872133017
0	5128	-0.016200494021177292
0	5088	-0.007349879015237093
0	5182	0.01729997619986534
0	5240	0.010690193623304367
0	5152	-0.0162445530295372
0	5254	0.018863504752516747
0	5214	-0.0074080475606024265
0	5258	0.008163669146597385
0	5298	0.007430800702422857
0	5282	-0.0029757844749838114
0	5374	0.01712668687105179
0	5340	-0.00633272947743535
0	5430	0.01678248681128025
0	5390	-0.007460830267518759
0	5310	-0.014931131154298782
0	5334	0.004485310986638069
0	5298	-0.006733754649758339
0	5360	0.011612807400524616
0	5340	-0.0037487815134227276
0	5334	-0.001125872484408319
0	5368	0.006386175751686096
0	5312	-0.010531858541071415
0	5318	0.0011301421327516437
0	5312	-0.0011315346928313375
0	5384	0.013601158745586872
0	5414	0.005667149554938078
0	5236	-0.03362805023789406
0	5368	0.024956829845905304
0	5254	-0.021538153290748596
0	5368	0.021538153290748596
0	5304	-0.012080030515789986
0	5324	0.00377083383500576
0	5382	0.010919222608208656
0	5434	0.009777376428246498
0	5482	0.00901431031525135
0	5462	-0.003748219460248947
0	5480	0.003369020065292716
0	5510	0.005605730693787336
0	5498	-0.002238777931779623
0	5596	0.018260642886161804
0	5300	-0.055047232657670975
0	5174	-0.02344302274286747
0	5174	0.0
0	5218	0.008207934908568859
0	5182	-0.0067227729596197605
0	5218	0.006728133652359247
0	5316	0.018328720703721046
0	5416	0.018700677901506424
0	6022	0.11328655481338501
0	5982	-0.007446016184985638
0	5508	-0.08788193017244339
1	4614	-0.1656087189912796
0	4550	-0.01190697681158781
0	5132	0.10879725217819214
0	5432	0.05614402890205383
0	5380	-0.009728718549013138
0	5444	0.011976346373558044
0	5440	-0.0007475517923012376
0	5446	0.001120824832469225
0	5520	0.01380700059235096
0	5420	-0.018640488386154175
0	5460	0.007450824603438377
0	5446	-0.002605588175356388
0	5510	0.011906533502042294
0	5474	-0.006694270297884941
0	5424	-0.009298058226704597
0	5484	0.011160298250615597
0	5458	-0.0048360093496739864
0	5548	0.01674543134868145
0	5426	-0.022692326456308365
0	5534	0.02010948397219181
0	5526	-0.001487431232817471
0	5532	0.0011131450301036239
0	5568	0.006664115935564041
0	5474	-0.017363248392939568
0	5456	-0.00331891025416553
0	5398	-0.01067864615470171
0	5452	0.009937187656760216
0	5264	-0.034588493406772614
0	5260	-0.0007393623818643391
0	5248	-0.00222799857147038
0	5158	-0.016736919060349464
0	5166	0.0014827261911705136
0	5250	0.01550960075110197
0	5110	-0.025830576196312904
0	5234	0.0229239072650671
0	5182	-0.009621907956898212
0	5218	0.0066721029579639435
0	5204	-0.002598270308226347
0	5252	0.008921711705625057
0	5304	0.009681263007223606
0	5310	0.0011178734712302685
0	5282	-0.0052216071635484695
0	5408	0.023521212860941887
0	5406	-0.0003735896898433566
0	5360	-0.008596202358603477
0	5448	0.01645146682858467
0	5388	-0.011219426989555359
0	5334	-0.010101892054080963
0	5376	0.007867526262998581
0	5412	0.00674569932743907
0	5372	-0.007500937674194574
0	5292	-0.015016330406069756
0	5366	0.013910994865000248
0	5378	0.0022586961276829243
0	5308	-0.013183667324483395
0	5300	-0.0015081061283126473
0	5294	-0.001131776487454772
0	5310	0.0030210718978196383
0	5274	-0.006795444525778294
0	5368	0.0177420973777771
0	5304	-0.012070612981915474
0	5358	0.010175240226089954
0	5400	0.007904543541371822
0	5398	-0.0003760529507417232
0	5502	0.019519519060850143
0	5372	-0.024358559399843216
0	5500	0.023955384269356728
0	5460	-0.0074729109182953835
0	5470	0.0018652540165930986
0	5288	-0.033901672810316086
0	5290	0.00037258287193253636
0	5208	-0.015277795493602753
0	5154	-0.010065613314509392
0	5246	0.017175927758216858
0	5236	-0.0018688095733523369
0	5338	0.019076593220233917
0	5356	0.0033687676768749952
0	5892	0.10033445060253143
0	5862	-0.0055962493643164635
0	5350	-0.09522156417369843
1	4436	-0.1700507253408432
0	4792	0.06662092357873917
0	5212	0.0788436233997345
0	5396	0.03457433357834816
0	5464	0.012776031158864498
0	5484	0.0037539887707680464
0	5390	-0.017623458057641983
0	5448	0.01086752861738205
0	5486	0.007113973144441843
0	5426	-0.011217749677598476
0	5356	-0.013082644902169704
0	5530	0.03250918537378311
0	5396	-0.025009019300341606
0	5446	0.009331956505775452
0	5444	-0.0003731668402906507
0	5510	0.012318948283791542
0	5424	-0.016038192436099052
0	5446	0.0041047330014407635
0	5510	0.011942080222070217
0	5466	-0.0082081388682127
0	5516	0.009317116811871529
0	5534	0.0033494604285806417
0	5542	0.0014856449561193585
0	5524	-0.003334691980853677
0	5570	0.008507384918630123
0	5542	-0.005167767871171236
0	5312	-0.042396314442157745
0	5326	0.0025813430547714233
0	5272	-0.009991365484893322
0	5252	-0.003714020363986492
0	5242	-0.0018581374315544963
0	5162	-0.014791257679462433
0	5210	0.008854564279317856
0	5088	-0.02250562608242035
0	5182	0.017373304814100266
0	5210	0.005184032954275608
0	5246	0.006676475051790476
0	5182	-0.01187986508011818
0	5218	0.006693440489470959
0	5266	0.00893943477421999
0	5210	-0.010439710691571236
0	5322	0.020898381248116493
0	5356	0.006352369673550129
0	5306	-0.009344047866761684
0	5338	0.005985410418361425
0	5388	0.009358389303088188
0	5434	0.00861627608537674
0	5394	-0.007491945754736662
0	5440	0.008618535473942757
0	5398	-0.007872539572417736
0	5298	-0.01875210925936699
0	5422	0.023284344002604485
0	5340	-0.015408513136208057
0	5378	0.007149576675146818
0	5344	-0.006402852479368448
0	5304	-0.007543469313532114
0	5306	0.00037773861549794674
0	5362	0.010577079840004444
0	5394	0.0060426765121519566
0	5292	-0.01924625039100647
0	5354	0.011695758439600468
0	5368	0.0026391192805022
0	5336	-0.006024474743753672
0	5306	-0.005643482320010662
0	5376	0.013150149956345558
0	5298	-0.014635244384407997
0	5360	0.011626744642853737
0	5458	0.018364669755101204
0	5408	-0.009353604167699814
0	5448	0.007474027574062347
0	5448	0.0
0	5558	0.020499950274825096
0	5482	-0.014142867177724838
0	5346	-0.025288525968790054
0	5396	0.009294947609305382
0	5182	-0.03976808115839958
0	5218	0.006698505021631718
0	5226	0.0014905536081641912
0	5208	-0.0033572486136108637
0	5214	0.0011206993367522955
0	5248	0.006357913371175528
0	5656	0.07631874084472656
0	6156	0.09339161217212677
0	5566	-0.1096450462937355
0	5042	-0.09726639837026596
0	4306	-0.13687419891357422
0	4732	0.07971656322479248
0	5078	0.06497897207736969
0	5524	0.08390818536281586
0	5404	-0.022557804360985756
0	5498	0.017657889053225517
0	5444	-0.010134754702448845
0	5430	-0.002626280300319195
0	5506	0.014248575083911419
0	5448	-0.010860338807106018
0	5500	0.009732482023537159
0	5430	-0.013084927573800087
0	5460	0.005605380982160568
0	5458	-0.0003736874205060303
0	5470	0.0022414266131818295
0	5404	-0.01232615765184164
0	5452	0.008966934867203236
0	5490	0.007103511597961187
0	5498	0.0014954016078263521
0	5450	-0.008963920176029205
0	5546	0.017921816557645798
0	5512	-0.006332964636385441
0	5556	0.008180668577551842
0	5476	-0.014843585900962353
0	5454	-0.004075231030583382
0	5450	-0.0007398547022603452
0	5382	-0.012561885640025139
0	5400	0.0033308248966932297
0	5278	-0.022681357339024544
0	5358	0.01489961426705122
0	5112	-0.045726608484983444
0	5178	0.0122071523219347
0	5112	-0.012173677794635296
0	5154	0.007745266892015934
0	5182	0.005175281781703234
0	5078	-0.019248804077506065
0	5206	0.023752382025122643
0	5218	0.0022300686687231064
0	5178	-0.0074433377012610435
0	5314	0.02535894140601158
0	5260	-0.010077384300529957
0	5260	0.0
0	5278	0.0033677173778414726
0	5376	0.018356185406446457
0	5368	-0.0014992315554991364
0	5340	-0.005250656511634588
0	5394	0.010130318813025951
0	5324	-0.013136658817529678
0	5430	0.019913332536816597
0	5458	0.005262366961687803
0	5384	-0.013906985521316528
0	5376	-0.0015049852663651109
0	5320	-0.010543889366090298
0	5388	0.01282228622585535
0	5348	-0.007546694949269295
0	5354	0.0011327594984322786
0	5292	-0.011712255887687206
0	5334	0.007938607595860958
0	5382	0.009076469577848911
0	5328	-0.01020433846861124
0	5364	0.00680417800322175
0	5408	0.008303035981953144
0	5276	-0.024873122572898865
0	5340	0.01204728614538908
0	5308	-0.006016620900481939
0	5382	0.013902457430958748
0	5446	0.012000900693237782
0	5430	-0.002995731309056282
0	5422	-0.0014958863612264395
0	5370	-0.009708495810627937
0	5550	0.03359462320804596
0	5470	-0.014904055744409561
0	5490	0.0037211610469967127
0	5298	-0.03567623719573021
0	5296	-0.0003718071093317121
0	5234	-0.0115311648696661
0	5206	-0.005211047362536192
0	5204	-0.00037265231367200613
0	5206	0.00037293025525286794
0	5340	0.025021161884069443
0	5182	-0.029524249956011772
0	5564	0.07147134095430374
0	6208	0.12034983187913895
0	5650	-0.10370462387800217
0	5136	-0.09537240117788315
0	4364	-0.14343221485614777
0	4532	0.03140578046441078
0	4986	0.08527422696352005
0	5510	0.098637156188488
0	5460	-0.009404389187693596
0	5456	-0.0007517289486713707
0	5440	-0.0030051840003579855
0	5448	0.0015022909501567483
0	5462	0.002626181812956929
0	5454	-0.0014995314413681626
0	5462	0.0014981647254899144
0	5460	-0.000374354247469455
0	5448	-0.0022459293249994516
0	5526	0.014596900902688503
0	5460	-0.012343215756118298
0	5568	0.020186662673950195
0	5430	-0.02579117938876152
0	5468	0.007103688549250364
0	5540	0.013461465947329998
0	5466	-0.013814562000334263
0	5552	0.016037793830037117
0	5514	-0.007072486914694309
0	5548	0.006315945647656918
0	5636	0.016312407329678535
0	5482	-0.028471067547798157
0	5480	-0.00036943083978258073
0	5374	-0.019543973729014397
0	5452	0.014398227445781231
0	5268	-0.03412378579378128
0	5152	-0.02156374417245388
0	5176	0.0044610220938920975
0	5152	-0.00443869037553668
0	5094	-0.010685991495847702
0	5128	0.006260049995034933
0	5174	0.008489382453262806
0	5152	-0.004067295230925083
0	5136	-0.0029635848477482796
0	5284	0.02746471017599106
0	5090	-0.03603759780526161
0	5222	0.02457703836262226
0	5286	0.011933322995901108
0	5244	-0.007839818485081196
0	5320	0.014205429702997208
0	5340	0.0037412550300359726
0	5418	0.014607835561037064
0	5406	-0.0022479486651718616
0	5306	-0.018751876428723335
0	5378	0.013511823490262032
0	5306	-0.01351943425834179
0	5416	0.0206849854439497
0	5348	-0.01279109064489603
0	5334	-0.002636832883581519
0	5378	0.008296564221382141
0	5384	0.0011325598461553454
0	5438	0.010209226049482822
0	5368	-0.013237852603197098
0	5302	-0.012490222230553627
0	5270	-0.006058617029339075
0	5342	0.013647564686834812
0	5366	0.0045470623299479485
0	5312	-0.010217081755399704
0	5422	0.020794738084077835
0	5322	-0.018872197717428207
0	5396	0.013945424929261208
0	5344	-0.009783017449080944
0	5438	0.01766585186123848
0	5402	-0.006753545720130205
0	5268	-0.025096453726291656
0	5416	0.027721239253878593
0	5398	-0.0033646535594016314
0	5486	0.016431398689746857
0	5538	0.009697391651570797
0	5472	-0.012285773642361164
0	5536	0.01190225314348936
0	5426	-0.02043217234313488
0	5382	-0.008172464556992054
0	5230	-0.02823634259402752
0	5218	-0.002230234444141388
0	5182	-0.00669734226539731
0	5156	-0.004840691573917866
0	5214	0.010815917514264584
0	5244	0.005599104333668947
0	5436	0.03585434332489967
0	6094	0.12283147871494293
0	5902	-0.03568375110626221
0	5392	-0.09451328217983246
1	4272	-0.20752781629562378
0	4806	0.09957980364561081
0	5434	0.11744756996631622
0	5424	-0.001869112253189087
0	5442	0.003363186726346612
0	5438	-0.0007467702380381525
0	5430	-0.001493391813710332
0	5506	0.014177693985402584
0	5432	-0.013795159757137299
0	5524	0.017141366377472878
0	5474	-0.00931098684668541
0	5402	-0.01340183150023222
0	5554	0.028269251808524132
0	5438	-0.02155546098947525
0	5472	0.006316415499895811
0	5464	-0.0014863441465422511
0	5468	0.000743512820918113
0	5500	0.0059482501819729805
0	5506	0.001115545746870339
0	5528	0.00408830726519227
0	5536	0.0014853138709440827
0	5502	-0.006300652399659157
0	5548	0.008509484119713306
0	5626	0.014396633952856064
0	5472	-0.028342166915535927
0	5508	0.006614971440285444
0	5478	-0.005503577180206776
0	5412	-0.0121047617867589
0	5262	-0.027626005932688713
0	5182	-0.014791986905038357
0	5210	0.0051839048974215984
0	5134	-0.013989618048071861
0	5100	-0.0062459432519972324
0	5096	-0.0007363228360190988
0	5116	0.0036890385672450066
0	5112	-0.0007392895058728755
0	5220	0.020000986754894257
0	5182	-0.007046519313007593
0	5172	-0.001858068397268653
0	5252	0.01488852221518755
0	5332	0.01491368655115366
0	5308	-0.0044780573807656765
0	5316	0.0014935589861124754
0	5366	0.009348590858280659
0	5396	0.005611672066152096
0	5392	-0.0007485777023248374
0	5316	-0.014229366555809975
0	5348	0.00599700165912509
0	5492	0.027012156322598457
0	5270	-0.04164738580584526
0	5308	0.007140351925045252
0	5310	0.00037634544423781335
0	5356	0.008666382171213627
0	5332	-0.0045270491391420364
0	5344	0.002267716685310006
0	5378	0.0064303819090127945
0	5334	-0.008328495547175407
0	5318	-0.0030312982853502035
0	5262	-0.010615845210850239
0	5376	0.02161082811653614
0	5340	-0.006816116161644459
0	5360	0.0037836271803826094
0	5374	0.0026447696145623922
0	5358	-0.0030173875857144594
0	5340	-0.003388979472219944
0	5296	-0.008272542618215084
0	5374	0.014648071490228176
0	5384	0.0018761490937322378
0	5450	0.012366961687803268
0	5418	-0.00598570890724659
0	5440	0.004110920242965221
0	5554	0.021287718787789345
0	5428	-0.023492561653256416
0	5486	0.010806513950228691
0	5326	-0.029788872227072716
0	5380	0.010058114305138588
0	5168	-0.03949035331606865
0	5238	0.013051260262727737
0	5182	-0.010448151268064976
0	5204	0.004112559370696545
0	5244	0.007480457425117493
0	5288	0.008231787011027336
0	5450	0.030312102288007736
0	5932	0.09013501554727554
0	5630	-0.056264206767082214
0	5050	-0.10786549746990204
1	4220	-0.1546737551689148
0	4886	0.12497654557228088
0	5398	0.09633838385343552
0	5468	0.013160038739442825
0	5462	-0.0011273532873019576
0	5508	0.008636442944407463
0	5378	-0.02438475377857685
0	5500	0.02288358099758625
0	5514	0.002623655367642641
0	5496	-0.003369608661159873
0	5450	-0.008600489236414433
0	5504	0.010091445408761501
0	5510	0.0011204341426491737
0	5406	-0.01941360905766487
0	5566	0.02986932173371315
0	5404	-0.03021899424493313
0	5530	0.023525604978203773
0	5430	-0.01865926943719387
0	5538	0.020159032195806503
0	5566	0.005219530779868364
0	5458	-0.020109236240386963
0	5534	0.014125518500804901
0	5488	-0.008534005843102932
0	5516	0.005184801295399666
0	5484	-0.005914098117500544
0	5414	-0.012917989864945412
0	5358	-0.010326387360692024
0	5312	-0.008487189188599586
0	5310	-0.0003704206901602447
0	5152	-0.029321158304810524
0	5180	0.005192878190428019
0	5102	-0.014380531385540962
0	5182	0.01472970936447382
0	5168	-0.0025811209343373775
0	5182	0.002585888374596834
0	5230	0.008881214074790478
0	5182	-0.00889646727591753
0	5226	0.008164982311427593
0	5318	0.017101218923926353
0	5252	-0.012283182702958584
0	5336	0.015656841918826103
0	5248	-0.016414031386375427
0	5358	0.02055024914443493
0	5314	-0.008227887563407421
0	5398	0.0157167986035347
0	5384	-0.00262221391312778
0	5390	0.0011239462764933705
0	5430	0.007499531377106905
0	5372	-0.01087432075291872
0	5334	-0.007131953723728657
0	5370	0.006766408681869507
0	5322	-0.009026854299008846
0	5350	0.005272672511637211
0	5260	-0.01696256920695305
0	5374	0.02152053266763687
0	5262	-0.021157624199986458
0	5320	0.010967124253511429
0	5382	0.011726286262273788
0	5274	-0.02041742205619812
0	5278	0.0007563724648207426
0	5382	0.01965007744729519
0	5352	-0.005661089438945055
0	5350	-0.00037681343383155763
0	5308	-0.007904741913080215
0	5286	-0.004136945586651564
0	5338	0.009771864861249924
0	5446	0.02028168924152851
0	5444	-0.00037496720324270427
0	5482	0.007114683277904987
0	5380	-0.019077783450484276
0	5522	0.02653808891773224
0	5460	-0.011573641560971737
0	5354	-0.01976112648844719
0	5346	-0.0014914429048076272
0	5256	-0.01677539572119713
0	5182	-0.013805283233523369
0	5114	-0.012701892293989658
0	5210	0.017962951213121414
0	5208	-0.000374742376152426
0	5208	0.0
0	5704	0.09310474246740341
0	6118	0.07755035907030106
0	5618	-0.09319664537906647
0	5156	-0.08597055077552795
0	4398	-0.14114229381084442
0	4452	0.010116275399923325
0	4894	0.08322454988956451
0	5310	0.07853896915912628
0	5372	0.011710633523762226
0	5518	0.02755964919924736
0	5350	-0.0316646546125412
0	5376	0.004901467822492123
0	5460	0.01583312265574932
0	5438	-0.004143906757235527
0	5490	0.009786699898540974
0	5378	-0.021052103489637375
0	5442	0.01202675886452198
0	5428	-0.002630919450893998
0	5422	-0.0011276500299572945
0	5498	0.01428893767297268
0	5426	-0.013526884838938713
0	5484	0.010903212241828442
0	5368	-0.021803144365549088
0	5528	0.03007066808640957
0	5426	-0.019148217514157295
0	5472	0.008626294322311878
0	5580	0.020216388627886772
0	5526	-0.010078889317810535
0	5494	-0.005960955750197172
0	5454	-0.007437985856086016
0	5444	-0.0018566654762253165
0	5346	-0.018224645406007767
0	5228	-0.02204948104918003
0	5264	0.006743340753018856
0	5152	-0.02096514403820038
0	5182	0.00558936782181263
0	5162	-0.003709428245201707
0	5182	0.003703292226418853
0	5090	-0.017048612236976624
0	5074	-0.0029701502062380314
0	5182	0.02010374516248703
0	5182	0.0
0	5280	0.018283354118466377
0	5128	-0.02838963456451893
0	5242	0.021333400160074234
0	5298	0.010495801456272602
0	5326	0.0052505251951515675
0	5372	0.008632121607661247
0	5362	-0.001877205679193139
0	5350	-0.0022534928284585476
0	5310	-0.0075186085887253284
0	5390	0.015048154629766941
0	5400	0.0018821285339072347
0	5362	-0.007150652818381786
0	5402	0.007534848991781473
0	5372	-0.005651988089084625
0	5316	-0.010557007975876331
0	5266	-0.009441562928259373
0	5336	0.013239854946732521
0	5310	-0.0049225646071136
0	5374	0.012128103524446487
0	5374	0.0
0	5316	-0.010994009673595428
0	5312	-0.0007577862706966698
0	5356	0.008333123289048672
0	5226	-0.024588923901319504
0	5372	0.027607593685388565
0	5376	0.0007553725736215711
0	5300	-0.014334574341773987
0	5266	-0.006404379848390818
0	5342	0.014298436231911182
0	5320	-0.004134871996939182
0	5406	0.016149627044796944
0	5482	0.014260517433285713
0	5506	0.004493372049182653
0	5346	-0.029906542971730232
0	5500	0.028776440769433975
0	5514	0.0026132080238312483
0	5358	-0.029092898592352867
0	5280	-0.014546810649335384
0	5248	-0.0059705208986997604
0	5166	-0.015305360779166222
0	5180	0.002616757294163108
0	5292	0.0209627915173769
0	5286	-0.001123497262597084
0	5152	-0.02510962076485157
0	5552	0.07505723088979721
0	6244	0.12965762615203857
0	5722	-0.09721153229475021
0	5276	-0.0828595831990242
1	4400	-0.16278089582920074
0	4852	0.08450177311897278
0	5474	0.11666291207075119
0	5490	0.002998013747856021
0	5294	-0.03668488562107086
0	5464	0.031830836087465286
0	5442	-0.0041131749749183655
0	5408	-0.006353952456265688
0	5490	0.015321183949708939
0	5446	-0.008211406879127026
0	5580	0.024979494512081146
0	5482	-0.018241608515381813
0	5480	-0.0003719039086718112
0	5466	-0.0026021336670964956
0	5470	0.0007435405277647078
0	5462	-0.0014874127227813005
0	5412	-0.009289651177823544
0	5490	0.014499758370220661
0	5518	0.0052058156579732895
0	5610	0.01708787865936756
0	5482	-0.02372596599161625
0	5504	0.004072012845426798
0	5644	0.025858884677290916
0	5420	-0.04125635325908661
0	5506	0.015827056020498276
0	5500	-0.0011027249274775386
0	5346	-0.028243063017725945
0	5376	0.005508832633495331
0	5206	-0.0313834547996521
0	5224	0.0033335392363369465
0	5204	-0.003705121809616685
0	5182	-0.004055498633533716
0	5158	-0.0044152275659143925
0	5050	-0.01990710012614727
0	5182	0.024396855384111404
0	5134	-0.0088777095079422
0	5202	0.012602394446730614
0	5248	0.008537807501852512
0	5244	-0.0007431536796502769
0	5348	0.019351476803421974
0	5414	0.012288214638829231
0	5382	-0.005964066367596388
0	5342	-0.007459717802703381
0	5398	0.0104525713250041
0	5384	-0.0026142490096390247
0	5300	-0.015693895518779755
0	5428	0.023938657715916634
0	5358	-0.013090147636830807
0	5380	0.004117434378713369
0	5374	-0.001123904250562191
0	5438	0.0120060034096241
0	5346	-0.01726337894797325
0	5362	0.0030052969232201576
0	5368	0.0011289797257632017
0	5292	-0.014305074699223042
0	5408	0.021863417699933052
0	5344	-0.012069550342857838
0	5308	-0.006789207924157381
0	5370	0.011697525158524513
0	5302	-0.012816323898732662
0	5398	0.018084771931171417
0	5340	-0.010912923142313957
0	5312	-0.005263091530650854
0	5444	0.024787800386548042
0	5304	-0.026225412264466286
0	5454	0.028077268972992897
0	5432	-0.004109793808311224
0	5466	0.006342415697872639
0	5558	0.01713859848678112
0	5514	-0.008180770091712475
0	5506	-0.001485884073190391
0	5402	-0.01930549554526806
0	5416	0.0025984952226281166
0	5344	-0.013357574120163918
0	5212	-0.02449706755578518
0	5208	-0.0007431260892190039
0	5162	-0.008550821803510189
0	5254	0.01712987571954727
0	5182	-0.013414649292826653
0	5412	0.042905110865831375
0	5976	0.10518594831228256
0	5968	-0.001487025641836226
0	5456	-0.09480427950620651
1	4412	-0.1931997537612915
0	4764	0.0655265673995018
0	5238	0.08852753043174744
0	5480	0.04524548351764679
0	5550	0.01307645346969366
0	5434	-0.021636946126818657
0	5454	0.003729024203494191
0	5490	0.006705908570438623
0	5452	-0.007074417546391487
0	5528	0.014139008708298206
0	5554	0.004830558784306049
0	5482	-0.01336782518774271
0	5530	0.008902077563107014
0	5490	-0.0074149142019450665
0	5554	0.011859611608088017
0	5448	-0.01963181048631668
0	5504	0.010378570295870304
0	5510	0.0011120584094896913
0	5540	0.005560155026614666
0	5586	0.008518308401107788
0	5546	-0.0073994603008031845
0	5590	0.008129280060529709
0	5528	-0.011428290978074074
0	5602	0.013613452203571796
0	5512	-0.016512347385287285
0	5518	0.001099088927730918
0	5434	-0.01535574160516262
0	5412	-0.004021202679723501
0	5312	-0.018341219052672386
0	5290	-0.004051316529512405
0	5214	-0.014009733684360981
0	5164	-0.009171731770038605
0	5152	-0.002195844892412424
0	5166	0.002563163638114929
0	5112	-0.009905470535159111
0	5214	0.018760576844215393
0	5234	0.0036835125647485256
0	5220	-0.002581946086138487
0	5256	0.006650328170508146
0	5254	-0.0003699091321323067
0	5348	0.01741514727473259
0	5346	-0.0003710070450324565
0	5330	-0.002970554167404771
0	5348	0.0033460152335464954
0	5418	0.013023740611970425
0	5410	-0.001489683985710144
0	5342	-0.012665300630033016
0	5404	0.011559399776160717
0	5370	-0.006343204528093338
0	5410	0.00747049180790782
0	5354	-0.010470160283148289
0	5346	-0.0014975290978327394
0	5382	0.006749156396836042
0	5330	-0.009757684543728828
0	5354	0.004511221311986446
0	5378	0.004515692126005888
0	5316	-0.011675789952278137
0	5390	0.013945949263870716
0	5312	-0.014701816253364086
0	5370	0.010932120494544506
0	5300	-0.013187309727072716
0	5330	0.005648653954267502
0	5346	0.003009479958564043
0	5334	-0.002254367806017399
0	5484	0.028149982914328575
0	5452	-0.00599138718098402
0	5486	0.006356407888233662
0	5452	-0.006346440874040127
0	5450	-0.0003727819421328604
0	5526	0.014148660935461521
0	5386	-0.026019401848316193
0	5346	-0.007432365324348211
0	5242	-0.019324149936437607
0	5106	-0.025283824652433395
0	5308	0.03761031851172447
0	5178	-0.02422119490802288
0	5254	0.014180514961481094
0	5232	-0.004107133951038122
0	5538	0.05718771368265152
0	6196	0.12284370511770248
0	5648	-0.1018095314502716
0	5104	-0.10088272392749786
1	4268	-0.15526527166366577
0	4884	0.115200474858284
0	5372	0.09151715785264969
0	5562	0.03562767431139946
0	5542	-0.003745972877368331
0	5382	-0.02992555871605873
0	5414	0.005985410418361425
0	5476	0.011589362286031246
0	5378	-0.018306579440832138
0	5518	0.02613956108689308
0	5472	-0.008578674867749214
0	5412	-0.0111808180809021
0	5514	0.01899818703532219
0	5468	-0.008566214703023434
0	5562	0.01750313490629196
0	5502	-0.011166946031153202
0	5448	-0.010047134943306446
0	5536	0.01637331210076809
0	5518	-0.0033488788176327944
0	5576	0.01078200526535511
0	5548	-0.005197698250412941
0	5562	0.002593937562778592
0	5490	-0.013302786275744438
0	5524	0.006274837534874678
0	5474	-0.009208102710545063
0	5418	-0.010299165733158588
0	5402	-0.002939267549663782
0	5346	-0.010296010412275791
0	5236	-0.020330213010311127
0	5254	0.0033352274913340807
0	5096	-0.029248788952827454
0	5222	0.02320641465485096
0	5152	-0.012865755707025528
0	5152	0.0
0	5140	-0.002214103937149048
0	5138	-0.0003699319495353848
0	5254	0.021488379687070847
0	5164	-0.016688507050275803
0	5326	0.03009735234081745
0	5280	-0.008548915386199951
0	5322	0.007817056030035019
0	5358	0.006706574931740761
0	5418	0.011181374080479145
0	5360	-0.010815110988914967
0	5380	0.0037318537943065166
0	5498	0.022042889147996902
0	5400	-0.018307263031601906
0	5362	-0.007100856862962246
0	5362	0.0
0	5358	-0.0007489981944672763
0	5360	0.0003750093746930361
0	5338	-0.0041299560107290745
0	5402	0.012031281366944313
0	5322	-0.015047399327158928
0	5310	-0.002259972272440791
0	5330	0.0037705020513385534
0	5324	-0.001131776487454772
0	5322	-0.00037744396831840277
0	5312	-0.0018875047098845243
0	5382	0.013206218369305134
0	5494	0.0211129542440176
0	5344	-0.028205737471580505
0	5400	0.010522096417844296
0	5426	0.004877682775259018
0	5506	0.014982583001255989
0	5374	-0.024664904922246933
0	5322	-0.00970221683382988
0	5300	-0.004103048704564571
0	5170	-0.02422480657696724
0	5236	0.012310676276683807
0	5246	0.0018657644977793097
0	5170	-0.014186514541506767
0	5228	0.010839231312274933
0	5520	0.05463458225131035
0	6204	0.12785206735134125
0	5694	-0.0948413759469986
0	5162	-0.0988125205039978
1	4282	-0.1636904776096344
0	4954	0.12584269046783447
0	5388	0.08148092776536942
0	5328	-0.011262529529631138
0	5442	0.02140309102833271
0	5442	0.0
0	5434	-0.0015006189933046699
0	5422	-0.0022493533324450254
0	5490	0.012737421318888664
0	5466	-0.00449107401072979
0	5464	-0.0003739249659702182
0	5508	0.008219076320528984
0	5420	-0.01641811616718769
0	5584	0.03059016540646553
0	5422	-0.030200215056538582
0	5484	0.011552507989108562
0	5494	0.0018623360665515065
0	5536	0.007818510755896568
0	5568	0.005955852102488279
0	5474	-0.017474284395575523
0	5606	0.024515267461538315
0	5556	-0.00926852785050869
0	5544	-0.0022191538009792566
0	5462	-0.015135481022298336
0	5382	-0.01474672555923462
0	5390	0.0014727540547028184
0	5334	-0.010299040004611015
0	5182	-0.027986448258161545
0	5182	0.0
0	5132	-0.009293564595282078
0	5182	0.00929529219865799
0	5164	-0.003327745944261551
0	5228	0.011816693469882011
0	5118	-0.02032996155321598
0	5178	0.0111034344881773
0	5236	0.010750828310847282
0	5210	-0.004825478419661522
0	5216	0.001115117222070694
0	5282	0.012281963601708412
0	5272	-0.001863307785242796
0	5330	0.010820222087204456
0	5374	0.008215290494263172
0	5342	-0.0059797437861561775
0	5366	0.004486987832933664
0	5388	0.00411866744980216
0	5354	-0.006366564426571131
0	5378	0.004497694782912731
0	5470	0.017253665253520012
0	5262	-0.039024390280246735
0	5350	0.0165419764816761
0	5314	-0.006772433873265982
0	5374	0.011308095417916775
0	5382	0.001509471912868321
0	5352	-0.005666293203830719
0	5276	-0.014364558272063732
0	5300	0.0045392075553536415
0	5400	0.018924102187156677
0	5320	-0.015132980421185493
0	5392	0.013607841916382313
0	5236	-0.029444701969623566
0	5312	0.014335475862026215
0	5348	0.006784942466765642
0	5428	0.0150602413341403
0	5470	0.00789671577513218
0	5464	-0.0011256191646680236
0	5496	0.005992584396153688
0	5494	-0.00037392962258309126
0	5542	0.008958455175161362
0	5430	-0.020860755816102028
0	5334	-0.017864231020212173
0	5214	-0.022321706637740135
0	5170	-0.008190516382455826
0	5234	0.011928577907383442
0	5182	-0.009698477573692799
0	5226	0.008215801790356636
0	5326	0.01869112253189087
0	5666	0.06356090307235718
0	6130	0.08658654987812042
0	5666	-0.08623253554105759
0	5018	-0.12012754380702972
0	4348	-0.12446128576993942
0	4724	0.07026723772287369
0	5108	0.07205403596162796
0	5456	0.06541107594966888
0	5448	-0.0015027237823233008
0	5470	0.004128044471144676
0	5410	-0.011246344074606895
0	5458	0.008996513672173023
0	5454	-0.000749063678085804
0	5436	-0.003369482234120369
0	5510	0.013835051096975803
0	5512	0.0003734594793058932
0	5422	-0.01678854040801525
0	5424	0.00037309256731532514
0	5482	0.01082277949899435
0	5444	-0.007089993450790644
0	5454	0.0018663913942873478
0	5574	0.022402269765734673
0	5430	-0.026877373456954956
0	5508	0.014558576978743076
0	5552	0.008203648962080479
0	5552	0.0
0	5602	0.009280799888074398
0	5600	-0.00037038864684291184
0	5560	-0.0073887077160179615
0	5548	-0.0022120631765574217
0	5468	-0.01472699735313654
0	5258	-0.03870539739727974
0	5274	0.0029648663476109505
0	5276	0.0003715078055392951
0	5132	-0.026705900207161903
0	5170	0.00701339915394783
0	5108	-0.011411602608859539
0	5202	0.017301462590694427
0	5174	-0.005161670967936516
0	5208	0.00627831369638443
0	5240	0.005918546114116907
0	5182	-0.010738618671894073
0	5240	0.010756942443549633
0	5292	0.009656931273639202
0	5262	-0.005576277617365122
0	5326	0.01191436592489481
0	5296	-0.005591312423348427
0	5358	0.011564431712031364
0	5324	-0.006344388239085674
0	5376	0.00971272774040699
0	5420	0.00822194293141365
0	5406	-0.0026166269090026617
0	5388	-0.003367759520187974
0	5302	-0.016094621270895004
0	5378	0.014241455122828484
0	5356	-0.004127012100070715
0	5240	-0.021787310019135475
0	5328	0.016565850004553795
0	5294	-0.006411384325474501
0	5326	0.006044350098818541
0	5290	-0.0068094125017523766
0	5366	0.014391576871275902
0	5336	-0.005677015520632267
0	5276	-0.011349593289196491
0	5398	0.023077506572008133
0	5370	-0.005287608131766319
0	5280	-0.016974512487649918
0	5292	0.0022608237341046333
0	5322	0.0056488667614758015
0	5474	0.0285943616181612
0	5406	-0.012770911678671837
0	5474	0.012757654301822186
0	5454	-0.003745411755517125
0	5546	0.01720591075718403
0	5500	-0.00858935434371233
0	5312	-0.03505239263176918
0	5346	0.006339814513921738
0	5158	-0.03504455089569092
0	5312	0.02874242700636387
0	5090	-0.04143698140978813
0	5154	0.011967090889811516
0	5236	0.01535829808562994
0	5254	0.0033749155700206757
0	5558	0.057046350091695786
0	6198	0.11990557610988617
0	5550	-0.12078585475683212
0	4788	-0.14186421036720276
0	4226	-0.10492382943630219
0	4754	0.09925682842731476
0	5170	0.07846786826848984
0	5414	0.04606960713863373
0	5374	-0.007546504959464073
0	5468	0.017733395099639893
0	5442	-0.0049009136855602264
0	5348	-0.017700226977467537
0	5486	0.025993594899773598
0	5518	0.006023113615810871
0	5412	-0.019921816885471344
0	5458	0.008638822473585606
0	5532	0.01388541329652071
0	5434	-0.018382122740149498
0	5498	0.012002550065517426
0	5478	-0.0037502343766391277
0	5508	0.005624508019536734
0	5456	-0.009751463308930397
0	5592	0.025510840117931366
0	5558	-0.006366564426571131
0	5512	-0.0086022038012743
0	5478	-0.006344151683151722
0	5602	0.023113630712032318
0	5600	-0.00037161828367970884
0	5568	-0.005929512903094292
0	5460	-0.019971152767539024
0	5352	-0.01994582638144493
0	5358	0.001109508564695716
0	5270	-0.016357485204935074
0	5210	-0.011172213591635227
0	5232	0.00408577686175704
0	5108	-0.02288639172911644
0	5114	0.0011049994500353932
0	5110	-0.0007369196973741055
0	5226	0.021410640329122543
0	5156	-0.012931990437209606
0	5180	0.0044423602521419525
0	5154	-0.0048203496262431145
0	5226	0.013364681974053383
0	5258	0.005949430167675018
0	5254	-0.0007448789547197521
0	5388	0.024977942928671837
0	5224	-0.030583322048187256
0	5354	0.024289380759000778
0	5346	-0.0014954761136323214
0	5402	0.01047825813293457
0	5416	0.002620806684717536
0	5310	-0.019854649901390076
0	5348	0.007124198600649834
0	5290	-0.010890383273363113
0	5388	0.018431907519698143
0	5322	-0.012422983534634113
0	5332	0.0018841144628822803
0	5408	0.014343592338263988
0	5256	-0.028721876442432404
0	5336	0.015146542340517044
0	5278	-0.010989843867719173
0	5370	0.017440317198634148
0	5374	0.0007582171820104122
0	5294	-0.015154385007917881
0	5322	0.005301223136484623
0	5378	0.01059642806649208
0	5406	0.0052892062813043594
0	5262	-0.02715171128511429
0	5446	0.034660737961530685
0	5306	-0.02633592300117016
0	5302	-0.0007517478661611676
0	5362	0.011267605237662792
0	5404	0.007877067662775517
0	5436	0.005994904320687056
0	5414	-0.004116920754313469
0	5496	0.01532958634197712
0	5570	0.013824712485074997
0	5458	-0.020878901705145836
0	5406	-0.009687514975667
0	5390	-0.0029796636663377285
0	5262	-0.023839086294174194
0	5216	-0.008575369603931904
0	5202	-0.0026114205829799175
0	5152	-0.009334975853562355
0	5214	0.011585320346057415
0	5230	0.0029930039308965206
0	5356	0.023583434522151947
0	5892	0.10030816495418549
0	6042	0.027986815199255943
0	5666	-0.0698123499751091
1	4814	-0.1578693836927414
0	4404	-0.0761883556842804
0	4950	0.10207133740186691
0	5368	0.0783495306968689
0	5384	0.0029976393561810255
0	5416	0.0059929583221673965
0	5420	0.0007489421404898167
0	5500	0.014977533370256424
0	5390	-0.02056356705725193
0	5522	0.02468489482998848
0	5494	-0.005229148548096418
0	5412	-0.015295653603971004
0	5490	0.014545002952218056
0	5464	-0.004845743998885155
0	5540	0.014162017963826656
0	5376	-0.030536247417330742
0	5458	0.015279503539204597
0	5538	0.01491720974445343
0	5548	0.0018637244356796145
0	5580	0.005958661437034607
0	5482	-0.018226906657218933
0	5560	0.014487369917333126
0	5626	0.012232490815222263
0	5578	-0.008873114362359047
0	5544	-0.006268667988479137
0	5482	-0.011407963931560516
0	5508	0.004776601679623127
0	5416	-0.01688610389828682
0	5386	-0.005522421095520258
0	5230	-0.02883264794945717
0	5224	-0.001111934776417911
0	5152	-0.013309507630765438
0	5152	0.0
0	5182	0.005513354204595089
0	5158	-0.004415715113282204
0	5182	0.004421843681484461
0	5260	0.014391675591468811
0	5204	-0.01034266222268343
0	5222	0.0033304961398243904
0	5224	0.00037043896736577153
0	5358	0.024865157902240753
0	5272	-0.015971671789884567
0	5326	0.010037423111498356
0	5398	0.013396844267845154
0	5380	-0.0033505824394524097
0	5364	-0.0029812552966177464
0	5364	0.0
0	5374	0.0018645121017470956
0	5368	-0.001119848689995706
0	5356	-0.0022422082256525755
0	5392	0.006736022885888815
0	5288	-0.01947055198252201
0	5348	0.01125210989266634
0	5312	-0.0067630186676979065
0	5392	0.01505400612950325
0	5258	-0.025239525362849236
0	5364	0.01999371312558651
0	5300	-0.012082614935934544
0	5348	0.009068581275641918
0	5322	-0.004913324024528265
0	5342	0.0037772911600768566
0	5352	0.0018872434739023447
0	5288	-0.012063181027770042
0	5320	0.006026441231369972
0	5338	0.0033869389444589615
0	5272	-0.012404771521687508
0	5330	0.010895020328462124
0	5334	0.0007510514697059989
0	5458	0.02326366677880287
0	5362	-0.017984038218855858
0	5440	0.014599451795220375
0	5594	0.028809817507863045
0	5430	-0.030619103461503983
0	5560	0.02425554022192955
0	5428	-0.024603914469480515
0	5354	-0.013788990676403046
0	5256	-0.018262231722474098
0	5182	-0.013799105770885944
0	5222	0.007467888295650482
0	5208	-0.0026161379646509886
0	5258	0.009351970627903938
0	5218	-0.007487832102924585
0	5394	0.032960858196020126
0	5906	0.0958586037158966
0	6030	0.023130012676119804
0	5588	-0.08212153613567352
1	4488	-0.20395801961421967
0	4678	0.03542088717222214
0	5088	0.0767311304807663
0	5430	0.06410897523164749
0	5496	0.012363564223051071
0	5444	-0.009731631726026535
0	5386	-0.010848285630345345
0	5526	0.02616952918469906
0	5426	-0.018668558448553085
0	5448	0.004104834981262684
0	5464	0.0029820704367011786
0	5478	0.0026071411557495594
0	5446	-0.00595385767519474
0	5430	-0.0029771504923701286
0	5494	0.011903581209480762
0	5442	-0.009668421931564808
0	5502	0.011166391894221306
0	5480	-0.004092515911906958
0	5488	0.0014889261219650507
0	5552	0.01190697681158781
0	5554	0.0003716366773005575
0	5572	0.0033385679125785828
0	5454	-0.021833522245287895
0	5576	0.022541387006640434
0	5478	-0.01806607097387314
0	5454	-0.00441837077960372
0	5432	-0.004044315777719021
0	5312	-0.022054769098758698
0	5306	-0.0011067659361287951
0	5282	-0.004446859937161207
0	5246	-0.006682920269668102
0	5130	-0.021433323621749878
0	5106	-0.004422169644385576
0	5236	0.023950772359967232
0	5154	-0.015125430189073086
0	5174	0.0036969033535569906
0	5182	0.0014812254812568426
0	5228	0.008527783676981926
0	5182	-0.00854351557791233
0	5234	0.0096724983304739
0	5326	0.0171356201171875
0	5260	-0.012303485535085201
0	5352	0.01717357710003853
0	5384	0.005976914428174496
0	5358	-0.0048576341941952705
0	5356	-0.000373980903532356
0	5386	0.005612722132354975
0	5392	0.0011233570985496044
0	5396	0.0007493162411265075
0	5396	0.0
0	5346	-0.009380980394780636
0	5266	-0.015029119327664375
0	5322	0.010540581308305264
0	5294	-0.005274659022688866
0	5370	0.014342328533530235
0	5358	-0.002266117837280035
0	5290	-0.012849098071455956
0	5294	0.0007565059349872172
0	5332	0.007187622133642435
0	5394	0.011725250631570816
0	5318	-0.014362746849656105
0	5310	-0.0015111827524378896
0	5274	-0.006792623549699783
0	5362	0.01658666506409645
0	5344	-0.003390043508261442
0	5362	0.0033860045950859785
0	5538	0.033068615943193436
0	5392	-0.027370894327759743
0	5514	0.022848153486847878
0	5456	-0.01083977147936821
0	5440	-0.0029861514922231436
0	5364	-0.01417416799813509
0	5282	-0.01528329961001873
0	5312	0.00559388380497694
0	5116	-0.036563072353601456
0	5226	0.020551016554236412
0	5220	-0.0011218726867809892
0	5174	-0.008609932847321033
0	5300	0.023615850135684013
0	5538	0.04463448375463486
0	6132	0.11129987984895706
0	5810	-0.06003952771425247
0	5350	-0.08548173308372498
1	4390	-0.17836572229862213
0	4798	0.07623223215341568
0	5134	0.06300393491983414
0	5462	0.06159007549285889
0	5512	0.00937863439321518
0	5408	-0.019481007009744644
0	5392	-0.002995656104758382
0	5426	0.006365849170833826
0	5422	-0.0007484189700335264
0	5482	0.011218448169529438
0	5426	-0.010456996038556099
0	5438	0.002239892492070794
0	5462	0.004477166570723057
0	5426	-0.006711576133966446
0	5476	0.009328125976026058
0	5412	-0.011933768168091774
0	5436	0.004478001967072487
0	5570	0.025005286559462547
0	5414	-0.029087111353874207
0	5468	0.010065487585961819
0	5518	0.009309137240052223
0	5628	0.020453954115509987
0	5562	-0.012233549728989601
0	5502	-0.011098368093371391
0	5486	-0.0029544278513640165
0	5390	-0.01769259199500084
0	5374	-0.002947135828435421
0	5326	-0.008850319311022758
0	5214	-0.02075355127453804
0	5244	0.005579527001827955
0	5160	-0.01563294790685177
0	5208	0.008890645578503609
0	5164	-0.00812917947769165
0	5162	-0.00036943992017768323
0	5218	0.010363461449742317
0	5108	-0.02039378695189953
0	5230	0.022660575807094574
0	5206	-0.004462293814867735
0	5282	0.014149889349937439
0	5268	-0.002608825219795108
0	5278	0.0018659268971532583
0	5348	0.013073522597551346
0	5348	0.0
0	5436	0.016456184908747673
0	5402	-0.006357675418257713
0	5402	0.0
0	5394	-0.0014967072056606412
0	5312	-0.01534526888281107
0	5350	0.007122684735804796
0	5366	0.0030002251733094454
0	5334	-0.00600427808240056
0	5428	0.017657889053225517
0	5296	-0.024827275425195694
0	5370	0.013941571116447449
0	5294	-0.014330249279737473
0	5296	0.0003775674558710307
0	5300	0.0007555818883702159
0	5314	0.0026457691565155983
0	5328	0.002645969158038497
0	5306	-0.004154967609792948
0	5362	0.010572155006229877
0	5266	-0.018100686371326447
0	5364	0.018471049144864082
0	5310	-0.01016515213996172
0	5408	0.01843075267970562
0	5448	0.007513806689530611
0	5406	-0.00787273608148098
0	5474	0.01273233350366354
0	5462	-0.0022431304678320885
0	5544	0.015310886316001415
0	5430	-0.02124936319887638
0	5284	-0.027188420295715332
0	5242	-0.007824434898793697
0	5240	-0.00037283755955286324
0	5208	-0.005972675047814846
0	5210	0.00037374329986050725
0	5124	-0.016090204939246178
0	5298	0.03260951116681099
0	5480	0.034111782908439636
0	6152	0.12584897875785828
0	5698	-0.08460783958435059
0	5006	-0.12867076694965363
0	4280	-0.13534675538539886
0	4684	0.075795479118824
0	5042	0.06745468825101852
0	5420	0.07133600860834122
0	5454	0.006411465350538492
0	5442	-0.0022606817074120045
0	5448	0.0011294330470263958
0	5464	0.003009555395692587
0	5398	-0.012402130290865898
0	5596	0.03719799965620041
0	5432	-0.030746925622224808
0	5466	0.006371655035763979
0	5492	0.004867698531597853
0	5446	-0.008607570081949234
0	5432	-0.002619727747514844
0	5440	0.0014967446913942695
0	5536	0.017964744940400124
0	5480	-0.010474598966538906
0	5464	-0.002993937348946929
0	5562	0.018333977088332176
0	5534	-0.005229214206337929
0	5510	-0.004474050365388393
0	5496	-0.002605491317808628
0	5630	0.02489379793405533
0	5472	-0.029276246204972267
0	5434	-0.0070260209031403065
0	5470	0.006650655996054411
0	5336	-0.024756744503974915
0	5320	-0.0029709588270634413
0	5244	-0.014145148918032646
0	5236	-0.0014867677818983793
0	5162	-0.01367163471877575
0	5154	-0.0014736764132976532
0	5128	-0.004786157049238682
0	5152	0.004425921011716127
0	5234	0.015150022692978382
0	5092	-0.026269054040312767
0	5182	0.016686029732227325
0	5182	0.0
0	5182	0.0
0	5278	0.017899315804243088
0	5266	-0.0022395579144358635
0	5360	0.017565060406923294
0	5380	0.003740321844816208
0	5280	-0.01870930753648281
0	5372	0.01722889393568039
0	5384	0.002248201286420226
0	5386	0.0003750562609639019
0	5298	-0.016512177884578705
0	5372	0.013899671845138073
0	5344	-0.005265599582344294
0	5398	0.010167193599045277
0	5382	-0.0030146208591759205
0	5298	-0.015838099643588066
0	5284	-0.0026452026795595884
0	5344	0.011350021697580814
0	5322	-0.004164037760347128
0	5352	0.005683540366590023
0	5286	-0.012502525933086872
0	5348	0.011747319251298904
0	5332	-0.0030295762699097395
0	5378	0.008704757317900658
0	5298	-0.015118110924959183
0	5406	0.0203909520059824
0	5334	-0.013570225797593594
0	5362	0.0052712829783558846
0	5396	0.006395705975592136
0	5346	-0.009387555532157421
0	5368	0.004126289393752813
0	5364	-0.000749363040085882
0	5476	0.020958345383405685
0	5430	-0.00859727431088686
0	5448	0.0033607168588787317
0	5514	0.012315884232521057
0	5548	0.006339262705296278
0	5418	-0.024198051542043686
0	5368	-0.009304286912083626
0	5282	-0.016004962846636772
0	5262	-0.003724487265571952
0	5118	-0.026822302490472794
0	5238	0.022387223318219185
0	5210	-0.005227131303399801
0	5250	0.0074760764837265015
0	5312	0.01159745641052723
0	5938	0.11708667129278183
0	6024	0.016020068898797035
0	5378	-0.11983083188533783
0	4666	-0.13202789425849915
0	4314	-0.06555016338825226
0	4786	0.08843035995960236
0	5350	0.10603895783424377
0	5436	0.016167236492037773
0	5508	0.013530443422496319
0	5380	-0.02402251958847046
0	5442	0.011637801304459572
0	5432	-0.001875797170214355
0	5426	-0.0011249859817326069
0	5462	0.006748650223016739
0	5430	-0.005994455423206091
0	5502	0.01348230428993702
0	5496	-0.0011225584894418716
0	5468	-0.005237952806055546
0	5514	0.008603169582784176
0	5460	-0.010095219127833843
0	5490	0.0056103430688381195
0	5524	0.006360688246786594
0	5586	0.011591240763664246
0	5460	-0.023524433374404907
0	5458	-0.0003729905001819134
0	5620	0.0301754642277956
0	5518	-0.018940331414341927
0	5526	0.0014829462161287665
0	5498	-0.005180196836590767
0	5408	-0.01662520505487919
0	5488	0.014769230969250202
0	5390	-0.018142549321055412
0	5182	-0.03865787759423256
0	5204	0.004093784838914871
0	5182	-0.00408016936853528
0	5098	-0.01549567747861147
0	5074	-0.004418858792632818
0	5232	0.029140178114175797
0	5116	-0.021420922130346298
0	5152	0.0066639515571296215
0	5226	0.01371742133051157
0	5164	-0.011508334428071976
0	5226	0.011527448892593384
0	5238	0.002233888255432248
0	5314	0.014167649671435356
0	5302	-0.002238610992208123
0	5340	0.007097762543708086
0	5396	0.010470028966665268
0	5362	-0.006359657272696495
0	5426	0.011982475407421589
0	5390	-0.006741573102772236
0	5424	0.006371018476784229
0	5402	-0.004124999977648258
0	5320	-0.015392701141536236
0	5322	0.0003757609229069203
0	5300	-0.004136893432587385
0	5384	0.015827156603336334
0	5330	-0.01018317136913538
0	5350	0.0037761973217129707
0	5366	0.0030237745959311724
0	5370	0.0007561436505056918
0	5438	0.0128640066832304
0	5282	-0.029502617195248604
0	5360	0.014742014929652214
0	5270	-0.016993315890431404
0	5298	0.005283882841467857
0	5346	0.009046703577041626
0	5296	-0.009407573379576206
0	5362	0.01241301465779543
0	5302	-0.011267182417213917
0	5398	0.0180105809122324
0	5388	-0.0018740864470601082
0	5438	0.009357337839901447
0	5518	0.01495196670293808
0	5416	-0.019030561670660973
0	5392	-0.0044749402441084385
0	5536	0.026834631338715553
0	5478	-0.010795249603688717
0	5390	-0.01637067086994648
0	5284	-0.019715795293450356
0	5254	-0.005584858823567629
0	5134	-0.022358303889632225
0	5212	0.014559119939804077
0	5260	0.008970062248408794
0	5244	-0.0029911387246102095
0	5284	0.007481483742594719
0	5770	0.09090909361839294
0	6174	0.0753890722990036
0	5530	-0.1195470541715622
0	4890	-0.11867235600948334
0	4236	-0.12162614613771439
0	4630	0.0737919807434082
0	4994	0.06851893663406372
0	5440	0.08410651236772537
0	5498	0.010932120494544506
0	5432	-0.01242220401763916
0	5428	-0.0007522284868173301
0	5478	0.009398025460541248
0	5428	-0.009387320838868618
0	5588	0.030027024447917938
0	5398	-0.03559340909123421
0	5506	0.02023204229772091
0	5450	-0.010482965037226677
0	5462	0.0022461814805865288
0	5470	0.0014979777624830604
0	5514	0.008236100897192955
0	5452	-0.011596588417887688
0	5480	0.005239913240075111
0	5494	0.002619924023747444
0	5590	0.017953544855117798
0	5544	-0.008586361072957516
0	5584	0.007452953141182661
0	5500	-0.015607580542564392
0	5578	0.014466947875916958
0	5518	-0.011106586083769798
0	5554	0.00665270397439599
0	5454	-0.018449049443006516
0	5380	-0.013678879477083683
0	5378	-0.0003715170023497194
0	5182	-0.036442968994379044
0	5228	0.008537490852177143
0	5170	-0.010699001140892506
0	5138	-0.005883362144231796
0	5092	-0.008449876680970192
0	5086	-0.001104511320590973
0	5132	0.008489382453262806
0	5182	0.009244650602340698
0	5268	0.01592494174838066
0	5182	-0.015945611521601677
0	5278	0.017826857045292854
0	5250	-0.00520949624478817
0	5304	0.010056115686893463
0	5338	0.006339577492326498
0	5330	-0.0014927043812349439
0	5388	0.010830999352037907
0	5334	-0.01008918322622776
0	5400	0.012345063500106335
0	5356	-0.00823271181434393
0	5320	-0.006741068325936794
0	5438	0.02211974561214447
0	5318	-0.022516043856739998
0	5340	0.004133784212172031
0	5306	-0.006398353725671768
0	5296	-0.001884161727502942
0	5368	0.01359003409743309
0	5290	-0.014736444689333439
0	5364	0.014004011638462543
0	5284	-0.015148071572184563
0	5334	0.009473285637795925
0	5312	-0.004169404041022062
0	5328	0.0030298056080937386
0	5318	-0.0018924339674413204
0	5408	0.01701601967215538
0	5354	-0.010192269459366798
0	5346	-0.0015074808616191149
0	5310	-0.006772603839635849
0	5290	-0.0037583622615784407
0	5334	0.008262806572020054
0	5422	0.016518790274858475
0	5450	0.005248097702860832
0	5432	-0.0033701553475111723
0	5506	0.013839363120496273
0	5502	-0.0007471329299733043
0	5566	0.011941932141780853
0	5454	-0.02086775004863739
0	5328	-0.023466600105166435
0	5312	-0.002979996846988797
0	5172	-0.026089224964380264
0	5216	0.00820885319262743
0	5238	0.004107082728296518
0	5234	-0.0007476729224435985
0	5282	0.008976772427558899
0	5372	0.016837535426020622
0	5950	0.10808991640806198
0	6086	0.025329656898975372
0	5644	-0.08195606619119644
1	4638	-0.18612626194953918
0	4768	0.024160275235772133
0	5160	0.07308614999055862
0	5558	0.07428514212369919
0	5478	-0.014908869750797749
0	5430	-0.008936994709074497
0	5434	0.0007442322093993425
0	5458	0.0044646733440458775
0	5502	0.008179958909749985
0	5402	-0.018572861328721046
0	5462	0.011137373745441437
0	5408	-0.010012979619204998
0	5426	0.003336133901029825
0	5550	0.022981688380241394
0	5418	-0.02444927580654621
0	5446	0.005186657886952162
0	5466	0.0037061285693198442
0	5522	0.010379468090832233
0	5414	-0.020022990182042122
0	5512	0.018173500895500183
0	5518	0.0011113992659375072
0	5510	-0.0014799832133576274
0	5510	0.0
0	5510	0.0
0	5534	0.004415336064994335
0	5432	-0.01873071864247322
0	5474	0.007705573458224535
0	5364	-0.020168684422969818
0	5368	0.0007360427989624441
0	5222	-0.026984401047229767
0	5182	-0.0074122571386396885
0	5164	-0.0033243452198803425
0	5164	0.0
0	5244	0.014738575555384159
0	5128	-0.02141222171485424
0	5182	0.009989270940423012
0	5210	0.0051875547505915165
0	5152	-0.010760534554719925
0	5306	0.02862524427473545
0	5208	-0.018238212913274765
0	5326	0.021986758336424828
0	5250	-0.014172933995723724
0	5312	0.011573497205972672
0	5398	0.016064956784248352
0	5362	-0.006731236353516579
0	5400	0.0071076746098697186
0	5400	0.0
0	5408	0.0014973982470110059
0	5304	-0.019480032846331596
0	5404	0.018743673339486122
0	5376	-0.005251772701740265
0	5348	-0.005256439559161663
0	5252	-0.01804036647081375
0	5342	0.016940221190452576
0	5356	0.0026379257906228304
0	5290	-0.012449854984879494
0	5318	0.005286477040499449
0	5316	-0.00037797653931193054
0	5376	0.011342726647853851
0	5290	-0.016257088631391525
0	5372	0.015494306571781635
0	5250	-0.023024950176477432
0	5248	-0.00037725409492850304
0	5348	0.018852747976779938
0	5352	0.0007536173798143864
0	5324	-0.005267910659313202
0	5322	-0.0003759445680771023
0	5362	0.007513618562370539
0	5400	0.007128564640879631
0	5462	0.011623983271420002
0	5392	-0.013103052973747253
0	5468	0.014220315031707287
0	5402	-0.012332452461123466
0	5486	0.01568705588579178
0	5498	0.002239780966192484
0	5414	-0.015665210783481598
0	5296	-0.022003978490829468
0	5258	-0.0070906104519963264
0	5182	-0.01419446337968111
0	5236	0.0100932065397501
0	5272	0.006735854782164097
0	5240	-0.005991312209516764
0	5278	0.007119482383131981
0	5416	0.02585076354444027
0	6094	0.126947283744812
0	5742	-0.06560555100440979
0	5250	-0.09144187718629837
0	4454	-0.1480049043893814
0	4354	-0.018693452700972557
0	4978	0.11739474534988403
0	5438	0.08671064674854279
0	5444	0.0011305395746603608
0	5452	0.0015055517433211207
0	5390	-0.011653113178908825
0	5586	0.036829181015491486
0	5338	-0.04653199389576912
0	5486	0.02776665985584259
0	5456	-0.005622610449790955
0	5474	0.003371586324647069
0	5570	0.017973488196730614
0	5402	-0.03143242001533508
0	5496	0.01758609153330326
0	5430	-0.01234552450478077
0	5490	0.011221245862543583
0	5514	0.0044883862137794495
0	5500	-0.0026179642882198095
0	5460	-0.007475890219211578
0	5540	0.014936519786715508
0	5608	0.012673798948526382
0	5526	-0.015242768451571465
0	5572	0.008535483852028847
0	5500	-0.013335144147276878
0	5548	0.008875849656760693
0	5464	-0.015506929717957973
0	5356	-0.019931593909859657
0	5332	-0.0044494434259831905
0	5208	-0.023047184571623802
0	5182	-0.004833731800317764
0	5118	-0.011844978667795658
0	5142	0.00442102923989296
0	5222	0.014721938408911228
0	5134	-0.016215618699789047
0	5182	0.008861756883561611
0	5144	-0.007027233950793743
0	5114	-0.0055562411434948444
0	5252	0.025633404031395912
0	5208	-0.008177324198186398
0	5292	0.015638185665011406
0	5260	-0.005963473580777645
0	5310	0.009330331347882748
0	5362	0.009719262830913067
0	5310	-0.009721685200929642
0	5414	0.019465934485197067
0	5370	-0.008236410096287727
0	5444	0.013862524181604385
0	5386	-0.010869973339140415
0	5370	-0.003000750206410885
0	5378	0.0015012196963652968
0	5370	-0.001502742525190115
0	5392	0.004138709511607885
0	5314	-0.014685946516692638
0	5358	0.008297815918922424
0	5396	0.007172698620706797
0	5318	-0.014737001620233059
0	5350	0.006051513832062483
0	5318	-0.006051742471754551
0	5348	0.005674009211361408
0	5320	-0.0052910721860826015
0	5436	0.021901117637753487
0	5306	-0.024495333433151245
0	5360	0.010164514183998108
0	5302	-0.010907996445894241
0	5262	-0.0075148423202335835
0	5364	0.019153250381350517
0	5366	0.00037503751809708774
0	5332	-0.006365610286593437
0	5374	0.007859477773308754
0	5468	0.017572063952684402
0	5482	0.0026142490096390247
0	5432	-0.009323719888925552
0	5454	0.0040993280708789825
0	5476	0.0040969871915876865
0	5564	0.016371076926589012
0	5426	-0.025648968294262886
0	5386	-0.007431904785335064
0	5224	-0.030110031366348267
0	5152	-0.013395681045949459
0	5216	0.011923392303287983
0	5204	-0.002237887354567647
0	5182	-0.004107031971216202
0	5314	0.024674436077475548
0	5312	-0.00037385508767329156
0	6002	0.12901698052883148
0	5930	-0.013411983847618103
0	5402	-0.09798220545053482
1	4584	-0.151749387383461
0	4684	0.018635855987668037
0	5168	0.09057112038135529
0	5466	0.05581779032945633
0	5404	-0.011610922403633595
0	5410	0.0011229505762457848
0	5380	-0.005613001994788647
0	5436	0.010472509078681469
0	5438	0.000373612972907722
0	5446	0.0014937635278329253
0	5494	0.008958120830357075
0	5438	-0.01044061966240406
0	5592	0.028700288385152817
0	5452	-0.026071088388562202
0	5464	0.0022350808139890432
0	5484	0.0037243948318064213
0	5408	-0.014150065369904041
0	5512	0.01937142200767994
0	5514	0.00037264765705913305
0	5542	0.005214217584580183
0	5558	0.0029766703955829144
0	5524	-0.006312349811196327
0	5622	0.01815262995660305
0	5532	-0.016629096120595932
0	5544	0.002212743042036891
0	5480	-0.011775095015764236
0	5488	0.0014703900087624788
0	5476	-0.002203209325671196
0	5182	-0.0541529506444931
0	5232	0.00925217755138874
0	5132	-0.01852377876639366
0	5182	0.009230655618011951
0	5166	-0.0029447851702570915
0	5126	-0.007362053729593754
0	5154	0.005164209753274918
0	5106	-0.008866557851433754
0	5182	0.01406504400074482
0	5152	-0.005558780860155821
0	5248	0.0178193561732769
0	5232	-0.002973387949168682
0	5286	0.01004850585013628
0	5292	0.0011179429711773992
0	5284	-0.001491943490691483
0	5326	0.00784772913902998
0	5382	0.010471857152879238
0	5410	0.0052386061288416386
0	5304	-0.019841020926833153
0	5446	0.026596741750836372
0	5386	-0.011242692358791828
0	5302	-0.015752363950014114
0	5362	0.01126859337091446
0	5338	-0.004512974992394447
0	5346	0.0015060808509588242
0	5378	0.006034775171428919
0	5286	-0.017366791144013405
0	5346	0.011344585567712784
0	5310	-0.006812504958361387
0	5376	0.012503630481660366
0	5332	-0.008341021835803986
0	5316	-0.0030302265658974648
0	5390	0.014007369987666607
0	5312	-0.014740529470145702
0	5338	0.004909489303827286
0	5358	0.0037724459543824196
0	5336	-0.004143646452575922
0	5370	0.006396508309990168
0	5320	-0.009391081519424915
0	5368	0.009007656946778297
0	5388	0.0037481258623301983
0	5450	0.011609038338065147
0	5426	-0.004487715195864439
0	5470	0.008220303803682327
0	5452	-0.0033591282553970814
0	5508	0.010439710691571236
0	5584	0.014152172952890396
0	5424	-0.029756739735603333
0	5394	-0.005578904412686825
0	5334	-0.011151587590575218
0	5254	-0.014879107475280762
0	5176	-0.014519011601805687
0	5240	0.011922354809939861
0	5274	0.006338553503155708
0	5182	-0.017158202826976776
0	5274	0.017175715416669846
0	5906	0.11806610971689224
0	6034	0.02382015809416771
0	5470	-0.10451154410839081
1	4562	-0.16809004545211792
0	4638	0.01414023619145155
0	5040	0.07511772215366364
0	5446	0.07599581032991409
0	5516	0.013098148629069328
0	5370	-0.027284279465675354
0	5456	0.016068359836935997
0	5426	-0.0056018223986029625
0	5432	0.0011197372805327177
0	5474	0.007835138589143753
0	5430	-0.008200387470424175
0	5460	0.0055890209041535854
0	5464	0.0007448696997016668
0	5474	0.0018620125483721495
0	5502	0.00521208206191659
0	5478	-0.00446661189198494
0	5538	0.011164728552103043
0	5490	-0.008930121548473835
0	5484	-0.0011169164208695292
0	5556	0.013398008421063423
0	5486	-0.013012764044106007
0	5552	0.012257633730769157
0	5544	-0.0014830377185717225
0	5554	0.0018495911499485373
0	5546	-0.001476813922636211
0	5490	-0.010320425033569336
0	5478	-0.0022073432337492704
0	5324	-0.028292180970311165
0	5344	0.0036874518264085054
0	5182	-0.02999555692076683
0	5230	0.008903398178517818
0	5166	-0.011822368949651718
0	5182	0.0029460140503942966
0	5118	-0.011773796752095222
0	5100	-0.0033180539030581713
0	5104	0.0007392349070869386
0	5112	0.0014808964915573597
0	5182	0.012985407374799252
0	5174	-0.0014862889656797051
0	5232	0.010792840272188187
0	5364	0.024599939584732056
0	5262	-0.019016841426491737
0	5370	0.020160285755991936
0	5316	-0.010086042806506157
0	5356	0.007478499319404364
0	5396	0.007485310547053814
0	5394	-0.00037445701309479773
0	5426	0.0059967017732560635
0	5314	-0.020996849983930588
0	5328	0.002627397421747446
0	5344	0.0030070289503782988
0	5304	-0.00752426590770483
0	5364	0.01130397617816925
0	5272	-0.017352379858493805
0	5364	0.01738319918513298
0	5266	-0.018538136035203934
0	5344	0.014775712974369526
0	5332	-0.002275111386552453
0	5350	0.003412494668737054
0	5360	0.0018957586726173759
0	5248	-0.021208640187978745
0	5334	0.01628335565328598
0	5308	-0.004917660262435675
0	5412	0.019655028358101845
0	5294	-0.02225966937839985
0	5284	-0.0018841144628822803
0	5316	0.006022358313202858
0	5326	0.0018795813666656613
0	5460	0.025163689628243446
0	5422	-0.0071232193149626255
0	5444	0.004119078628718853
0	5522	0.014596719294786453
0	5510	-0.0022420126479119062
0	5562	0.009706925600767136
0	5460	-0.01901140622794628
0	5394	-0.012293555773794651
0	5258	-0.025332488119602203
0	5224	-0.006338474340736866
0	5152	-0.013439522124826908
0	5210	0.010837205685675144
0	5280	0.013089004904031754
0	5244	-0.0067341746762394905
0	5284	0.007485216483473778
0	5630	0.06477944552898407
0	6270	0.11955615133047104
0	5822	-0.08321981132030487
0	5262	-0.10366787016391754
1	4258	-0.18595577776432037
0	4912	0.12193908542394638
0	5280	0.06880133599042892
0	5438	0.02955443784594536
0	5468	0.005604962352663279
0	5502	0.006346994079649448
0	5382	-0.022374143823981285
0	5518	0.02536209300160408
0	5412	-0.01974002830684185
0	5496	0.01563061960041523
0	5458	-0.007063109427690506
0	5416	-0.0078002153895795345
0	5530	0.021177781745791435
0	5472	-0.010767459869384766
0	5426	-0.008538230322301388
0	5450	0.004457376431673765
0	5466	0.0029726882930845022
0	5480	0.0026026498526334763
0	5512	0.005948176607489586
0	5570	0.010773193091154099
0	5518	-0.009640103206038475
0	5614	0.01776483841240406
0	5468	-0.02694058232009411
0	5466	-0.000368464388884604
0	5514	0.008833055384457111
0	5376	-0.025353044271469116
0	5388	0.0022033711429685354
0	5276	-0.020595302805304527
0	5248	-0.005180388689041138
0	5290	0.007798187900334597
0	5112	-0.03304373845458031
0	5178	0.012187765911221504
0	5182	0.0007374450215138495
0	5132	-0.009223617613315582
0	5140	0.0014785609673708677
0	5222	0.015185934491455555
0	5232	0.0018551499815657735
0	5234	0.0003713744517881423
0	5290	0.010416796430945396
0	5292	0.00037231005262583494
0	5246	-0.00857398472726345
0	5338	0.017170585691928864
0	5350	0.0022407290525734425
0	5374	0.004486484453082085
0	5294	-0.014964086003601551
0	5388	0.01759728416800499
0	5426	0.0071165491826832294
0	5368	-0.010864813812077045
0	5414	0.008622951805591583
0	5324	-0.01688132993876934
0	5370	0.008641527034342289
0	5350	-0.003760670777410269
0	5392	0.007910498417913914
0	5370	-0.004145572427660227
0	5312	-0.010935830883681774
0	5344	0.006041231565177441
0	5334	-0.001888265018351376
0	5318	-0.003022251185029745
0	5258	-0.011330446228384972
0	5380	0.023037124425172806
0	5320	-0.01132331881672144
0	5328	0.0015078028663992882
0	5366	0.007155320607125759
0	5404	0.007147066295146942
0	5394	-0.0018776052165776491
0	5446	0.009748050943017006
0	5486	0.007488019298762083
0	5486	0.0
0	5498	0.0022393350955098867
0	5384	-0.02124619483947754
0	5286	-0.018253840506076813
0	5240	-0.008566001430153847
0	5228	-0.0022359692957252264
0	5174	-0.01006949134171009
0	5182	0.0014936333755031228
0	5284	0.019057108089327812
0	5206	-0.014582528732717037
0	5348	0.02658412791788578
0	5902	0.10372848063707352
0	5950	0.008960016071796417
0	5480	-0.08739308267831802
1	4422	-0.19659337401390076
0	4814	0.07326098531484604
0	5182	0.06902415305376053
0	5410	0.04281529039144516
0	5478	0.012761645019054413
0	5532	0.010125759989023209
0	5364	-0.03146342560648918
0	5398	0.0063657695427536964
0	5394	-0.0007482602959498763
0	5498	0.01945306919515133
0	5378	-0.022420966997742653
0	5464	0.016063356772065163
0	5466	0.0003733386402018368
0	5484	0.0033587520010769367
0	5540	0.010443604551255703
0	5398	-0.026466531679034233
0	5556	0.029464785009622574
0	5452	-0.019386107102036476
0	5444	-0.0014916653744876385
0	5496	0.009692210704088211
0	5510	0.002606041030958295
0	5596	0.0159817636013031
0	5552	-0.008158119395375252
0	5526	-0.004809470847249031
0	5500	-0.004799291025847197
0	5582	0.015116136521100998
0	5380	-0.03715147450566292
0	5406	0.004780935123562813
0	5336	-0.012911000289022923
0	5152	-0.034066084772348404
0	5182	0.0055655185133218765
0	5152	-0.0055394843220710754
0	5154	0.00036853228812105954
0	5134	-0.0036859565880149603
0	5140	0.0011076651280745864
0	5160	0.0036999124567955732
0	5152	-0.0014833677560091019
0	5226	0.013739153742790222
0	5240	0.0026020691730082035
0	5236	-0.0007441583438776433
0	5252	0.002981477417051792
0	5298	0.008578461594879627
0	5284	-0.002613533055409789
0	5352	0.012708697468042374
0	5406	0.010100506246089935
0	5378	-0.005241679027676582
0	5376	-0.00037445235648192465
0	5342	-0.006372848991304636
0	5472	0.024383533746004105
0	5378	-0.017628084868192673
0	5324	-0.01013424713164568
0	5430	0.01991632580757141
0	5362	-0.012789808213710785
0	5278	-0.015818018466234207
0	5364	0.016219886019825935
0	5286	-0.014723648317158222
0	5358	0.013616420328617096
0	5268	-0.017022887244820595
0	5386	0.02233833074569702
0	5326	-0.011354890652000904
0	5392	0.012476684525609016
0	5346	-0.008684379048645496
0	5370	0.004525455646216869
0	5338	-0.006025760434567928
0	5228	-0.020687060430645943
0	5360	0.0248107872903347
0	5392	0.006007208954542875
0	5424	0.005998200736939907
0	5440	0.0029953946359455585
0	5438	-0.0003739575913641602
0	5484	0.008590210229158401
0	5434	-0.009323719888925552
0	5500	0.012296914122998714
0	5424	-0.014141113497316837
0	5314	-0.020458266139030457
0	5258	-0.010421060025691986
0	5182	-0.014153403230011463
0	5178	-0.0007458141189999878
0	5180	0.00037328756297938526
0	5354	0.032535120844841
0	5234	-0.022441372275352478
0	5408	0.03255825489759445
0	6024	0.11527953296899796
0	5786	-0.04435664042830467
0	5342	-0.08248904347419739
1	4508	-0.15496674180030823
0	4860	0.06572232395410538
0	5330	0.08802706748247147
0	5516	0.03482276573777199
0	5420	-0.017958471551537514
0	5508	0.016452288255095482
0	5366	-0.02652883343398571
0	5430	0.011955168098211288
0	5482	0.009709945879876614
0	5506	0.0044775004498660564
0	5476	-0.005587216466665268
0	5458	-0.0033499174751341343
0	5494	0.006697092670947313
0	5488	-0.0011156979016959667
0	5480	-0.001487154746428132
0	5548	0.012637526728212833
0	5482	-0.012260973453521729
0	5466	-0.0029714738484472036
0	5456	-0.0018575622234493494
0	5480	0.004457266069948673
0	5584	0.019294990226626396
0	5534	-0.00925777293741703
0	5592	0.010715737007558346
0	5520	-0.013268465176224709
0	5522	0.00036780029768124223
0	5444	-0.014329454861581326
0	5442	-0.00036695002927444875
0	5356	-0.015775570645928383
0	5272	-0.015471892431378365
0	5234	-0.007021347060799599
0	5116	-0.0218176431953907
0	5180	0.01178912166506052
0	5116	-0.01176600344479084
0	5206	0.016567669808864594
0	5252	0.008484059013426304
0	5170	-0.015139392577111721
0	5166	-0.0007400463218800724
0	5182	0.0029638411942869425
0	5168	-0.0025973382871598005
0	5182	0.0026023918762803078
0	5268	0.016018278896808624
0	5270	0.00037299981340765953
0	5314	0.008215597830712795
0	5358	0.008224811404943466
0	5342	-0.0029932651668787003
0	5418	0.014230255037546158
0	5386	-0.005996552295982838
0	5422	0.006750168278813362
0	5456	0.006376912817358971
0	5318	-0.025882763788104057
0	5368	0.009387320838868618
0	5274	-0.01767205260694027
0	5348	0.013934744521975517
0	5322	-0.0049035013653337955
0	5342	0.0037766252644360065
0	5342	0.0
0	5354	0.0022700042463839054
0	5374	0.0037854411639273167
0	5328	-0.008705525659024715
0	5322	-0.0011351023567840457
0	5352	0.005672364495694637
0	5290	-0.011705475859344006
0	5366	0.014338720589876175
0	5350	-0.0030139395967125893
0	5334	-0.0030112166423350573
0	5420	0.016176968812942505
0	5414	-0.001126859337091446
0	5434	0.0037503752391785383
0	5466	0.005991162732243538
0	5520	0.010091320611536503
0	5518	-0.0003729673335328698
0	5410	-0.020108984783291817
0	5310	-0.018603267148137093
0	5242	-0.012650535441935062
0	5236	-0.0011170272482559085
0	5134	-0.01900196261703968
0	5182	0.008957898244261742
0	5206	0.004484639968723059
0	5272	0.012349375523626804
0	5386	0.021355247125029564
0	6012	0.11721675843000412
0	5820	-0.0358075350522995
0	5332	-0.09070294350385666
1	4308	-0.1903463751077652
0	4884	0.10774679481983185
0	5382	0.09342287480831146
0	5422	0.007501969579607248
0	5446	0.004499268718063831
0	5414	-0.005996326915919781
0	5510	0.017979323863983154
0	5458	-0.009727383963763714
0	5470	0.0022432981058955193
0	5486	0.00298771308735013
0	5426	-0.011195561848580837
0	5528	0.019023463129997253
0	5452	-0.014157270081341267
0	5468	0.0029798857867717743
0	5548	0.014894436113536358
0	5470	-0.01451180875301361
0	5460	-0.0018604419892653823
0	5464	0.0007444538059644401
0	5580	0.0215963963419199
0	5556	-0.004463511053472757
0	5558	0.000371392845408991
0	5578	0.003706678282469511
0	5524	-0.009986930526793003
0	5604	0.014759965240955353
0	5488	-0.021346550434827805
0	5498	0.001837042160332203
0	5418	-0.014676026068627834
0	5282	-0.02494436502456665
0	5338	0.01031725574284792
0	5098	-0.044348083436489105
0	5126	0.0051814112812280655
0	5098	-0.005155398044735193
0	5092	-0.0011032791808247566
0	5152	0.01105243805795908
0	5116	-0.006642475258558989
0	5182	0.012202638201415539
0	5158	-0.0044436766766011715
0	5262	0.019297854974865913
0	5178	-0.015605648048222065
0	5220	0.007816959172487259
0	5296	0.01416835468262434
0	5328	0.005970446392893791
0	5282	-0.00859320443123579
0	5322	0.007480270694941282
0	5358	0.006738376338034868
0	5422	0.01199355348944664
0	5358	-0.011997150257229805
0	5418	0.011254501529037952
0	5370	-0.009006191976368427
0	5374	0.0007515030447393656
0	5340	-0.006395064294338226
0	5336	-0.000753390253521502
0	5354	0.003395414911210537
0	5288	-0.012463176622986794
0	5340	0.009839043021202087
0	5330	-0.0018938916036859155
0	5330	0.0
0	5366	0.006829046178609133
0	5334	-0.006067040842026472
0	5334	0.0
0	5364	0.0056795235723257065
0	5286	-0.01474461518228054
0	5398	0.021146705374121666
0	5304	-0.017714014276862144
0	5310	0.001129603129811585
0	5346	0.006769377272576094
0	5428	0.015403304249048233
0	5492	0.01200180035084486
0	5444	-0.008988426998257637
0	5526	0.015329776331782341
0	5476	-0.009329634718596935
0	5616	0.02609376423060894
0	5342	-0.05097800865769386
0	5330	-0.00223178300075233
0	5260	-0.013018089346587658
0	5156	-0.01935291849076748
0	5216	0.011183597147464752
0	5182	-0.006342967972159386
0	5236	0.010088932700455189
0	5246	0.0018698812928050756
0	5314	0.012725344859063625
0	5964	0.1216590628027916
0	5946	-0.003355871420353651
0	5294	-0.12111154943704605
1	4392	-0.16754381358623505
0	4690	0.05567942187190056
0	5248	0.1046760305762291
0	5494	0.046171169728040695
0	5400	-0.01762852631509304
0	5468	0.012747290544211864
0	5454	-0.002622246742248535
0	5560	0.019843004643917084
0	5364	-0.03662820905447006
0	5434	0.013084275647997856
0	5492	0.010832482948899269
0	5452	-0.007462222129106522
0	5534	0.015287479385733604
0	5458	-0.014159556478261948
0	5490	0.005963177420198917
0	5508	0.0033533291425555944
0	5466	-0.007825309410691261
0	5542	0.014160962775349617
0	5494	-0.008947879076004028
0	5576	0.015271535143256187
0	5588	0.002231451217085123
0	5514	-0.013732695020735264
0	5656	0.02629370056092739
0	5482	-0.032131776213645935
0	5540	0.010690849274396896
0	5426	-0.020973874256014824
0	5412	-0.002572898752987385
0	5366	-0.008448737673461437
0	5326	-0.007373725064098835
0	5212	-0.021095484495162964
0	5226	0.0025919845793396235
0	5248	0.00405226182192564
0	5058	-0.034877318888902664
0	5100	0.007718696258962154
0	5170	0.012895618565380573
0	5106	-0.011806956492364407
0	5174	0.0125728789716959
0	5098	-0.014076333492994308
0	5236	0.025632770732045174
0	5246	0.0018589203245937824
0	5248	0.0003722176479641348
0	5360	0.02087578736245632
0	5368	0.0014919806271791458
0	5370	0.00037338046240620315
0	5354	-0.002988680498674512
0	5306	-0.008973640389740467
0	5400	0.017595527693629265
0	5426	0.004868852905929089
0	5314	-0.020988717675209045
0	5288	-0.00487786578014493
0	5398	0.020674359053373337
0	5330	-0.012795745395123959
0	5330	0.0
0	5344	0.0026428725104779005
0	5298	-0.008691270835697651
0	5304	0.0011353744193911552
0	5308	0.0007574992487207055
0	5308	0.0
0	5396	0.01668204367160797
0	5390	-0.0011369091225787997
0	5370	-0.0037854411639273167
0	5334	-0.006807608995586634
0	5314	-0.003779955906793475
0	5326	0.002264321781694889
0	5352	0.004899066872894764
0	5384	0.006022735498845577
0	5398	0.002630359260365367
0	5488	0.01688576489686966
0	5462	-0.0048662410117685795
0	5490	0.005233188159763813
0	5512	0.004105549771338701
0	5446	-0.012296456843614578
0	5414	-0.005958735942840576
0	5324	-0.016754161566495895
0	5212	-0.020855575799942017
0	5182	-0.005591243039816618
0	5232	0.009325922466814518
0	5182	-0.009335673414170742
0	5242	0.01121984701603651
0	5228	-0.0026191396173089743
0	5506	0.052028097212314606
0	6224	0.13428425788879395
0	5738	-0.09039057791233063
0	4978	-0.1409948766231537
0	4266	-0.13238957524299622
0	4618	0.06587237119674683
0	5076	0.08607728779315948
0	5472	0.07453322410583496
0	5430	-0.007896914146840572
0	5444	0.0026317439042031765
0	5408	-0.006765052210539579
0	5494	0.016157111153006554
0	5444	-0.00938426610082388
0	5464	0.003750656498596072
0	5508	0.008244331926107407
0	5420	-0.01647261343896389
0	5522	0.019088970497250557
0	5372	-0.028050316497683525
0	5480	0.020210841670632362
0	5462	-0.0033680954948067665
0	5524	0.01160324364900589
0	5470	-0.010105294175446033
0	5462	-0.001496856682933867
0	5526	0.01197126880288124
0	5442	-0.01569252647459507
0	5558	0.021639637649059296
0	5510	-0.008933445438742638
0	5528	0.0033442743588238955
0	5512	-0.0029663320165127516
0	5404	-0.019989388063549995
0	5466	0.011462942697107792
0	5316	-0.027739765122532845
0	5326	0.0018597269663587213
0	5172	-0.028713129460811615
0	5166	-0.0011173462262377143
0	5182	0.0029630360659211874
0	5066	-0.021407481282949448
0	5130	0.011811750009655952
0	5108	-0.004068850073963404
0	5200	0.01704903319478035
0	5134	-0.012249290943145752
0	5182	0.008923702873289585
0	5182	0.0
0	5234	0.009701854549348354
0	5252	0.003363145049661398
0	5240	-0.002245676936581731
0	5276	0.006744604092091322
0	5356	0.015011071227490902
0	5330	-0.0048790862783789635
0	5364	0.00638633593916893
0	5292	-0.013532307930290699
0	5306	0.002635112265124917
0	5330	0.004521988332271576
0	5394	0.012068640440702438
0	5280	-0.021515116095542908
0	5296	0.0030227459501475096
0	5366	0.013246369548141956
0	5308	-0.010985542088747025
0	5282	-0.004931402858346701
0	5300	0.0034190199803560972
0	5286	-0.002660989761352539
0	5316	0.005708631128072739
0	5292	-0.004566905088722706
0	5330	0.0072324927896261215
0	5298	-0.006084421183913946
0	5398	0.018997922539711
0	5426	0.005312152206897736
0	5378	-0.009085861966013908
0	5484	0.02003326267004013
0	5438	-0.008673136122524738
0	5384	-0.01016630046069622
0	5290	-0.01766917295753956
0	5298	0.001502742525190115
0	5158	-0.02627890557050705
0	5248	0.016901621595025063
0	5134	-0.021409256383776665
0	5152	0.0033826532308012247
0	5254	0.019183268770575523
0	5304	0.009409580379724503
0	5778	0.08921737223863602
0	6048	0.05068836361169815
0	5562	-0.09080943465232849
0	4780	-0.14588463306427002
0	4280	-0.09359673410654068
0	4912	0.11913439631462097
0	5250	0.06386195123195648
0	5484	0.04422492906451225
0	5372	-0.021151762455701828
0	5356	-0.0030204635113477707
0	5410	0.010189319960772991
0	5396	-0.0026398489717394114
0	5450	0.010175240226089954
0	5410	-0.007530876435339451
0	5426	0.003010121639817953
0	5474	0.009024931117892265
0	5422	-0.009766235947608948
0	5532	0.020656242966651917
0	5438	-0.017639994621276855
0	5406	-0.006002851761877537
0	5430	0.0045043351128697395
0	5466	0.006756841670721769
0	5508	0.007878939621150494
0	5470	-0.007118860259652138
0	5484	0.002619924023747444
0	5510	0.00485569890588522
0	5578	0.012678840197622776
0	5528	-0.009297020733356476
0	5542	0.002597113372758031
0	5454	-0.016295691952109337
0	5412	-0.007770294789224863
0	5410	-0.00037085110670886934
0	5152	-0.04802918806672096
0	5210	0.010824799537658691
0	5138	-0.01340183150023222
0	5158	0.0037030179519206285
0	5204	0.008504030294716358
0	5182	-0.004068298265337944
0	5234	0.009633910842239857
0	5116	-0.021880215033888817
0	5182	0.012256267480552197
0	5250	0.01264551654458046
0	5250	0.0
0	5224	-0.004845442716032267
0	5256	0.0059705208986997604
0	5354	0.018304072320461273
0	5288	-0.012336448766291142
0	5362	0.013843333348631859
0	5354	-0.0014981647254899144
0	5400	0.008618966676294804
0	5370	-0.005621275864541531
0	5452	0.015370581299066544
0	5408	-0.008248350583016872
0	5432	0.004501913208514452
0	5418	-0.002626740373671055
0	5294	-0.023275019600987434
0	5356	0.01165325939655304
0	5370	0.0026350461412221193
0	5394	0.004521704278886318
0	5360	-0.006411707028746605
0	5318	-0.007925027050077915
0	5314	-0.0007552109891548753
0	5352	0.007178841158747673
0	5300	-0.009811320342123508
0	5424	0.023382991552352905
0	5284	-0.0263527762144804
0	5416	0.024827275425195694
0	5408	-0.001502686063759029
0	5454	0.008628235198557377
0	5478	0.004495504777878523
0	5408	-0.013082318939268589
0	5522	0.021275537088513374
0	5388	-0.024965841323137283
0	5316	-0.013402996584773064
0	5286	-0.005581395234912634
0	5268	-0.0033482143189758062
0	5132	-0.025311116129159927
0	5182	0.00931457243859768
0	5258	0.014173992909491062
0	5242	-0.0029857801273465157
0	5506	0.04931383952498436
0	6086	0.10824934393167496
0	5824	-0.04870673269033432
0	5278	-0.10124234855175018
0	4554	-0.13437600433826447
0	4494	-0.011195979081094265
0	4948	0.08513990044593811
0	5408	0.08648567646741867
0	5520	0.021052366122603416
0	5396	-0.023289592936635017
0	5454	0.010891064070165157
0	5468	0.0026266416534781456
0	5488	0.003748734714463353
0	5452	-0.006741994060575962
0	5416	-0.006735602393746376
0	5472	0.01047812681645155
0	5438	-0.006354269105941057
0	5506	0.012706796638667583
0	5514	0.0014940053224563599
0	5464	-0.009334046393632889
0	5518	0.010081648826599121
0	5520	0.00037313898792490363
0	5592	0.013433169573545456
0	5454	-0.025714285671710968
0	5548	0.01750052720308304
0	5594	0.008550185710191727
0	5552	-0.007790955249220133
0	5598	0.008510848507285118
0	5576	-0.004059989470988512
0	5528	-0.008840864524245262
0	5466	-0.011399433948099613
0	5404	-0.011402228847146034
0	5330	-0.013666248880326748
0	5314	-0.002963877748697996
0	5182	-0.024446558207273483
0	5112	-0.012914016842842102
0	5130	0.003308174666017294
0	5182	0.009546305984258652
0	5152	-0.005515111144632101
0	5170	0.003316545858979225
0	5182	0.002214103937149048
0	5218	0.006653442047536373
0	5182	-0.006663705222308636
0	5276	0.01743258722126484
0	5310	0.0063122715801000595
0	5286	-0.004458646290004253
0	5386	0.018599113449454308
0	5386	0.0
0	5334	-0.009681863710284233
0	5410	0.014166242443025112
0	5368	-0.007831339724361897
0	5336	-0.005972302984446287
0	5350	0.0026158771943300962
0	5418	0.012724868021905422
0	5374	-0.008235587738454342
0	5346	-0.005246524233371019
0	5384	0.00713132880628109
0	5330	-0.010144655592739582
0	5332	0.0003763595886994153
0	5384	0.009800349362194538
0	5360	-0.0045273336581885815
0	5346	-0.002642706036567688
0	5314	-0.0060426765121519566
0	5452	0.026061667129397392
0	5306	-0.02754855528473854
0	5344	0.007164584472775459
0	5330	-0.002635740675032139
0	5374	0.008273372426629066
0	5412	0.0071365972980856895
0	5508	0.017999999225139618
0	5492	-0.0029936758801341057
0	5434	-0.010831134393811226
0	5462	0.0052218022756278515
0	5542	0.014893511310219765
0	5436	-0.019701380282640457
0	5426	-0.0018571711843833327
0	5302	-0.023008979856967926
0	5274	-0.0051982770673930645
0	5182	-0.01709190011024475
0	5210	0.005206783767789602
0	5182	-0.005213246680796146
0	5264	0.015285009518265724
0	5332	0.01268104650080204
0	5528	0.03655534237623215
0	6128	0.11182764172554016
0	5660	-0.0868188664317131
0	5108	-0.10220329463481903
0	4320	-0.14614786207675934
0	4528	0.038819488137960434
0	5132	0.11329247802495956
0	5424	0.05485697463154793
0	5482	0.01089188177138567
0	5418	-0.012008405290544033
0	5432	0.0026251310482621193
0	5438	0.0011251969262957573
0	5480	0.007869885303080082
0	5534	0.010109835304319859
0	5508	-0.0048615094274282455
0	5480	-0.005231102462857962
0	5454	-0.0048553962260484695
0	5500	0.00859320443123579
0	5558	0.010834370739758015
0	5516	-0.007839526049792767
0	5528	0.00223911227658391
0	5518	-0.0018660895293578506
0	5560	0.007833580486476421
0	5596	0.006708907894790173
0	5546	-0.009300941601395607
0	5610	0.011885159648954868
0	5564	-0.008519886061549187
0	5602	0.007022818084806204
0	5564	-0.007004694547504187
0	5516	-0.008831755258142948
0	5456	-0.01102724950760603
0	5354	-0.01875459775328636
0	5346	-0.0014779599150642753
0	5250	-0.01776988059282303
0	5230	-0.0036988176871091127
0	5132	-0.01802309788763523
0	5152	0.003664614399895072
0	5208	0.010259667411446571
0	5114	-0.017244331538677216
0	5084	-0.0055159227922558784
0	5074	-0.0018424123991280794
0	5224	0.02769707888364792
0	5218	-0.001109344302676618
0	5222	0.0007407590164802969
0	5288	0.012246109545230865
0	5270	-0.0033443986903876066
0	5316	0.00855792686343193
0	5304	-0.002234414918348193
0	5310	0.0011185682378709316
0	5406	0.01792471669614315
0	5398	-0.0014947496820241213
0	5370	-0.005235862918198109
0	5294	-0.014224751852452755
0	5430	0.025497132912278175
0	5326	-0.019518055021762848
0	5314	-0.002255186904221773
0	5314	0.0
0	5354	0.007543089799582958
0	5330	-0.004532920196652412
0	5320	-0.0018915034597739577
0	5326	0.001136306207627058
0	5356	0.005686197895556688
0	5338	-0.0034116755705326796
0	5316	-0.004170036409050226
0	5290	-0.004926170688122511
0	5336	0.008712231181561947
0	5366	0.0056745815090835094
0	5330	-0.006800322327762842
0	5332	0.0003775056975428015
0	5418	0.016210509464144707
0	5424	0.001128597417846322
0	5450	0.004879879765212536
0	5466	0.002998762996867299
0	5406	-0.011227965354919434
0	5518	0.02093484066426754
0	5470	-0.00895923562347889
0	5554	0.01565917767584324
0	5348	-0.03834555670619011
0	5322	-0.004838409833610058
0	5238	-0.01563061960041523
0	5152	-0.016019470989704132
0	5254	0.019028903916478157
0	5182	-0.013441864401102066
0	5260	0.014572176150977612
0	5286	0.004862539935857058
0	5434	0.027685977518558502
0	5964	0.09907159954309464
0	6042	0.014521533623337746
0	5518	-0.09714017808437347
1	4546	-0.1799822300672531
0	4684	0.025675691664218903
0	5182	0.09302614629268646
0	5440	0.04824654385447502
0	5432	-0.0014950663316994905
0	5510	0.014566371217370033
0	5440	-0.013054505921900272
0	5520	0.014909795485436916
0	5494	-0.004841051995754242
0	5444	-0.009300248697400093
0	5456	0.0022305110469460487
0	5418	-0.007061621639877558
0	5512	0.017468871548771858
0	5438	-0.013746810145676136
0	5470	0.005945597775280476
0	5478	0.0014858104987069964
0	5516	0.007059348281472921
0	5534	0.0033429493196308613
0	5526	-0.0014859393704682589
0	5580	0.010019048117101192
0	5530	-0.009262117557227612
0	5554	0.004437814932316542
0	5568	0.0025823269970715046
0	5568	0.0
0	5482	-0.015794888138771057
0	5434	-0.008803784847259521
0	5420	-0.002565449569374323
0	5342	-0.014294441789388657
0	5324	-0.003311299020424485
0	5204	-0.022172948345541954
0	5106	-0.018142996355891228
0	5110	0.000737980124540627
0	5072	-0.006992492359131575
0	5142	0.012889603152871132
0	5106	-0.006641086656600237
0	5152	0.008502877317368984
0	5170	0.0033345683477818966
0	5182	0.0022267582826316357
0	5232	0.009297597222030163
0	5246	0.002607561880722642
0	5298	0.009697150439023972
0	5304	0.0011200020089745522
0	5386	0.01531755831092596
0	5380	-0.001121676992624998
0	5260	-0.022441651672124863
0	5368	0.020223960280418396
0	5356	-0.0022486508823931217
0	5414	0.010879351757466793
0	5370	-0.00825949851423502
0	5358	-0.0022547913249582052
0	5368	0.0018816090887412429
0	5292	-0.014314773492515087
0	5382	0.016979636624455452
0	5418	0.006799808703362942
0	5246	-0.03251868486404419
0	5332	0.016283562406897545
0	5314	-0.0034103826619684696
0	5350	0.006825334392488003
0	5298	-0.009858318604528904
0	5374	0.01441067922860384
0	5346	-0.005303499288856983
0	5320	-0.004917226731777191
0	5394	0.013976681046187878
0	5330	-0.012063484638929367
0	5394	0.012049251236021519
0	5356	-0.007141335867345333
0	5424	0.012762922793626785
0	5522	0.01836444064974785
0	5390	-0.024683354422450066
0	5508	0.022043714299798012
0	5556	0.008952328935265541
0	5432	-0.023089813068509102
0	5414	-0.00334908626973629
0	5320	-0.017486637458205223
0	5294	-0.004838529508560896
0	5182	-0.020838502794504166
0	5180	-0.0003725458518601954
0	5232	0.00969678908586502
0	5180	-0.009707771241664886
0	5276	0.017943253740668297
0	5452	0.03291277959942818
0	6206	0.14092755317687988
0	5844	-0.06727707386016846
0	5322	-0.09673593193292618
1	4296	-0.1902489811182022
0	4990	0.12944702804088593
0	5296	0.0571976862847805
0	5572	0.05159585922956467
0	5416	-0.02912258915603161
0	5394	-0.004104018211364746
0	5472	0.014548800885677338
0	5442	-0.005591312423348427
0	5528	0.016016289591789246
0	5444	-0.0156308151781559
0	5502	0.010785079561173916
0	5502	0.0
0	5458	-0.008168923668563366
0	5552	0.017448119819164276
0	5478	-0.013733204454183578
0	5514	0.006677383091300726
0	5476	-0.007048088125884533
0	5490	0.002597948769107461
0	5508	0.0033390221651643515
0	5504	-0.0007415739237330854
0	5564	0.011110973544418812
0	5572	0.0014789981069043279
0	5572	0.0
0	5520	-0.009567382745444775
0	5456	-0.011754478327929974
0	5482	0.004767201840877533
0	5362	-0.021974803879857063
0	5374	0.002198688220232725
0	5252	-0.022467494010925293
0	5278	0.0048056188970804214
0	5132	-0.026992715895175934
0	5094	-0.006989491172134876
0	5182	0.016175875440239906
0	5108	-0.013611949048936367
0	5136	0.005165162496268749
0	5156	0.0036957645788788795
0	5180	0.004441428929567337
0	5236	0.010382034815847874
0	5220	-0.002970076398923993
0	5354	0.02492188662290573
0	5292	-0.011537459678947926
0	5372	0.014906462281942368
0	5394	0.004102589562535286
0	5348	-0.0085815554484725
0	5378	0.0056037758477032185
0	5366	-0.002242906717583537
0	5364	-0.0003741628024727106
0	5382	0.0033698189072310925
0	5362	-0.0037467684596776962
0	5400	0.007125355768948793
0	5278	-0.022891024127602577
0	5288	0.0018796756630763412
0	5374	0.016194026917219162
0	5290	-0.015837104991078377
0	5382	0.01737050712108612
0	5324	-0.01095607504248619
0	5292	-0.0060507506132125854
0	5298	0.0011350165586918592
0	5346	0.009084485471248627
0	5366	0.0037829589564353228
0	5320	-0.008695981465280056
0	5386	0.012462078593671322
0	5396	0.0018847299506887794
0	5458	0.011669636704027653
0	5488	0.005634225904941559
0	5452	-0.006746205035597086
0	5464	0.002244584960862994
0	5512	0.008962470106780529
0	5382	-0.02423173002898693
0	5282	-0.0186210498213768
0	5206	-0.014158324338495731
0	5152	-0.010065237991511822
0	5218	0.012318795546889305
0	5242	0.004484472796320915
0	5170	-0.013462306000292301
0	5288	0.022091861814260483
0	5728	0.08241654932498932
0	6220	0.09194771945476532
0	5634	-0.10894623398780823
0	5004	-0.11692939698696136
0	4266	-0.13731084764003754
0	4886	0.11608458310365677
0	5160	0.05143093317747116
0	5414	0.04774077236652374
0	5346	-0.012771072797477245
0	5466	0.02254226617515087
0	5402	-0.012011861428618431
0	5484	0.015379613265395164
0	5456	-0.00524547602981329
0	5430	-0.004867455456405878
0	5458	0.005239782389253378
0	5454	-0.0007478964980691671
0	5546	0.01719433255493641
0	5422	-0.023153334856033325
0	5422	0.0
0	5458	0.006726205814629793
0	5472	0.0026156490202993155
0	5528	0.010462075471878052
0	5498	-0.005604124628007412
0	5492	-0.0011200158623978496
0	5522	0.005592771340161562
0	5512	-0.001860603573732078
0	5532	0.00371291721239686
0	5500	-0.0059291464276611805
0	5536	0.006659678183495998
0	5356	-0.033223409205675125
0	5452	0.017711741849780083
0	5270	-0.03363560512661934
0	5296	0.00483337277546525
0	5182	-0.021236959844827652
0	5220	0.0070711709558963776
0	5158	-0.011469303630292416
0	5140	-0.003324222518131137
0	5174	0.006279860157519579
0	5112	-0.011468455195426941
0	5208	0.017783265560865402
0	5182	-0.004823986440896988
0	5182	0.0
0	5246	0.01191288698464632
0	5234	-0.002236580476164818
0	5350	0.021646637469530106
0	5236	-0.021287718787789345
0	5348	0.020942671224474907
0	5370	0.004118821583688259
0	5312	-0.010862236842513084
0	5538	0.04235435277223587
0	5368	-0.031843554228544235
0	5350	-0.003373861312866211
0	5378	0.005254071671515703
0	5322	-0.010516036301851273
0	5364	0.007895429618656635
0	5302	-0.011666708625853062
0	5358	0.010551570914685726
0	5348	-0.0018862704746425152
0	5248	-0.018880749121308327
0	5344	0.018158432096242905
0	5346	0.0003783293068408966
0	5498	0.028772257268428802
0	5432	-0.012475269846618176
0	5352	-0.015108592808246613
0	5504	0.028675640001893044
0	5402	-0.019208557903766632
0	5422	0.0037606237456202507
0	5318	-0.01952074095606804
0	5290	-0.005250853020697832
0	5234	-0.010490034706890583
0	5156	-0.014608748257160187
0	5258	0.019106848165392876
0	5212	-0.00861272681504488
0	5182	-0.005618188064545393
0	5382	0.03746674582362175
0	5864	0.0902768224477768
0	5990	0.023507168516516685
0	5478	-0.09514134377241135
1	4626	-0.15821529924869537
0	4930	0.056693147867918015
0	5162	0.04342997074127197
0	5460	0.055856842547655106
0	5438	-0.004120827652513981
0	5422	-0.0029958433005958796
0	5454	0.005987949203699827
0	5456	0.00037403684109449387
0	5432	-0.004484137054532766
0	5442	0.0018675299361348152
0	5438	-0.0007465751259587705
0	5484	0.008575476706027985
0	5520	0.0067054093815386295
0	5502	-0.00334908626973629
0	5406	-0.017861351370811462
0	5438	0.005954743828624487
0	5494	0.010415245778858662
0	5472	-0.004091957584023476
0	5558	0.015988893806934357
0	5470	-0.016346951946616173
0	5488	0.0033405504655092955
0	5542	0.01000939216464758
0	5468	-0.013690520077943802
0	5494	0.004800945520401001
0	5492	-0.0003687678254209459
0	5486	-0.001104402937926352
0	5332	-0.028293568640947342
0	5348	0.002940491773188114
0	5248	-0.01843634992837906
0	5178	-0.012964563444256783
0	5182	0.0007422068156301975
0	5162	-0.0036983159370720387
0	5174	0.0022158208303153515
0	5242	0.012555391527712345
0	5170	-0.01331180427223444
0	5182	0.0022223046980798244
0	5230	0.008902407251298428
0	5206	-0.004457376431673765
0	5310	0.0193452388048172
0	5246	-0.011913774535059929
0	5254	0.0014910352183505893
0	5296	0.007836893200874329
0	5328	0.005977956112474203
0	5422	0.017581265419721603
0	5328	-0.01759004034101963
0	5444	0.02171742357313633
0	5422	-0.00411866744980216
0	5328	-0.0176058541983366
0	5246	-0.015372117049992085
0	5386	0.026296349242329597
0	5248	-0.02593432553112507
0	5412	0.03086690790951252
0	5350	-0.011678722687065601
0	5334	-0.003016098402440548
0	5308	-0.004906092304736376
0	5380	0.013601844199001789
0	5486	0.020038312301039696
0	5306	-0.03399433568120003
0	5400	0.017757290974259377
0	5406	0.001132360426709056
0	5470	0.012061210349202156
0	5378	-0.017306679859757423
0	5312	-0.012398866936564445
0	5234	-0.01464055571705103
0	5182	-0.009760859422385693
0	5288	0.01989564299583435
0	5178	-0.020632736384868622
0	5326	0.027769438922405243
0	5244	-0.015374231152236462
0	5324	0.015005439519882202
0	5840	0.09673790633678436
0	5848	0.001494340249337256
0	5236	-0.11392547190189362
0	4496	-0.1378317028284073
0	4634	0.025852378457784653
0	5090	0.08579707145690918
0	5412	0.060719579458236694
0	5430	0.0033944756723940372
0	5408	-0.004146145191043615
0	5436	0.005271547473967075
0	5412	-0.004517051856964827
0	5400	-0.002256204606965184
0	5398	-0.00037606238038279116
0	5414	0.0030075942631810904
0	5480	0.012400110252201557
0	5380	-0.0187678299844265
0	5418	0.007131775375455618
0	5490	0.013518587686121464
0	5396	-0.01762896589934826
0	5436	0.007501875516027212
0	5496	0.01125070359557867
0	5496	0.0
0	5432	-0.011989958584308624
0	5492	0.011232169345021248
0	5514	0.004111842252314091
0	5504	-0.0018651612335816026
0	5488	-0.002980255987495184
0	5516	0.005205428693443537
0	5420	-0.017826193943619728
0	5410	-0.001854874542914331
0	5446	0.006673999596387148
0	5256	-0.03530986234545708
0	5162	-0.01753338798880577
0	5134	-0.005225115455687046
0	5182	0.008921933360397816
0	5278	0.01778348535299301
0	5182	-0.017762865871191025
0	5272	0.016676342114806175
0	5256	-0.0029675790574401617
0	5266	0.0018564816564321518
0	5214	-0.009663870558142662
0	5276	0.01153645757585764
0	5258	-0.0033518720883876085
0	5278	0.0037275415379554033
0	5296	0.003357624402269721
0	5446	0.02801225148141384
0	5402	-0.00821355264633894
0	5268	-0.02501649037003517
0	5326	0.010843012481927872
0	5438	0.020947368815541267
0	5262	-0.03291688486933708
0	5402	0.026222139596939087
0	5374	-0.005247507244348526
0	5382	0.0014998313272371888
0	5416	0.0063786678947508335
0	5312	-0.01952318288385868
0	5292	-0.0037589743733406067
0	5360	0.01279622595757246
0	5390	0.00565092358738184
0	5400	0.0018839960684999824
0	5420	0.0037682289257645607
0	5450	0.005653266329318285
0	5390	-0.011292771436274052
0	5562	0.03232637047767639
0	5250	-0.05848172307014465
0	5234	-0.002997789066284895
0	5288	0.01012032013386488
0	5164	-0.0232238732278347
0	5216	0.009745614603161812
0	5258	0.007873425260186195
0	5152	-0.019872019067406654
0	5404	0.04726122319698334
0	5832	0.08020488172769547
0	5688	-0.026888413354754448
0	5330	-0.06667742878198624
0	4568	-0.14189240336418152
0	4606	0.00711477268487215
0	5006	0.07526624947786331
0	5286	0.05277309939265251
0	5464	0.033557046204805374
0	5430	-0.006408725865185261
0	5414	-0.0030126909259706736
0	5458	0.008284276351332664
0	5458	0.0
0	5416	-0.007899785414338112
0	5460	0.008275965228676796
0	5438	-0.004134146962314844
0	5412	-0.004881345666944981
0	5478	0.012387077324092388
0	5418	-0.011254782788455486
0	5410	-0.001500468933954835
0	5490	0.0150056267157197
0	5468	-0.004125515930354595
0	5434	-0.006372690200805664
0	5464	0.005627462174743414
0	5572	0.020231790840625763
0	5534	-0.007103600539267063
0	5474	-0.011199044063687325
0	5444	-0.00558874337002635
0	5480	0.00669701024889946
0	5370	-0.02043495513498783
0	5412	0.007791918236762285
0	5262	-0.027826903387904167
0	5280	0.0033510399516671896
0	5164	-0.02165040746331215
0	5212	0.008968050591647625
0	5254	0.007815699093043804
0	5224	-0.005560292396694422
0	5182	-0.007773939054459333
0	5174	-0.0014817009214311838
0	5258	0.015585765242576599
0	5238	-0.0037148483097553253
0	5218	-0.0037189009599387646
0	5266	0.008938658982515335
0	5304	0.007084881886839867
0	5280	-0.004477779380977154
0	5366	0.016063356772065163
0	5296	-0.013080689124763012
0	5336	0.007480084430426359
0	5324	-0.0022460133768618107
0	5478	0.028840752318501472
0	5362	-0.021714985370635986
0	5350	-0.0022481733467429876
0	5366	0.002999774878844619
0	5336	-0.005626969505101442
0	5386	0.009385793469846249
0	5330	-0.01052433717995882
0	5382	0.009785103611648083
0	5338	-0.008284484036266804
0	5322	-0.003014545189216733
0	5358	0.006789463572204113
0	5336	-0.004149429965764284
0	5304	-0.006038419436663389
0	5356	0.009809840470552444
0	5370	0.0026398489717394114
0	5274	-0.018078414723277092
0	5314	0.0075297425501048565
0	5336	0.004139799624681473
0	5252	-0.01579541154205799
0	5302	0.009397907182574272
0	5318	0.0030049204360693693
0	5424	0.01990012265741825
0	5434	0.0018751876195892692
0	5394	-0.00749063678085804
0	5454	0.011226984672248363
0	5474	0.003738830331712961
0	5458	-0.0029874525498598814
0	5420	-0.007091139908879995
0	5278	-0.026478048413991928
0	5276	-0.00037306471494957805
0	5182	-0.01753927767276764
0	5246	0.011963660828769207
0	5216	-0.005612022243440151
0	5242	0.004867819603532553
0	5212	-0.00562106491997838
0	5378	0.031127335503697395
0	5854	0.08926115930080414
0	5740	-0.02130788005888462
0	5394	-0.06452735513448715
0	4746	-0.12080687284469604
0	4344	-0.07521422952413559
0	4890	0.10280679166316986
0	5320	0.08119232952594757
0	5520	0.03776007145643234
0	5398	-0.0230098944157362
0	5362	-0.006788610015064478
0	5418	0.010554222390055656
0	5420	0.000376690411940217
0	5502	0.015436165034770966
0	5540	0.0071421414613723755
0	5342	-0.03715890645980835
0	5458	0.021766597405076027
0	5362	-0.018009906634688377
0	5462	0.01876876875758171
0	5450	-0.0022512944415211678
0	5460	0.0018761256942525506
0	5484	0.004503095988184214
0	5422	-0.011631106957793236
0	5484	0.011630960740149021
0	5484	0.0
0	5528	0.008232916705310345
0	5552	0.004481012001633644
0	5534	-0.003354370594024658
0	5570	0.006695515010505915
0	5400	-0.03155354782938957
0	5438	0.007044951897114515
0	5336	-0.018903125077486038
0	5256	-0.014873575419187546
0	5244	-0.0022377483546733856
0	5250	0.0011199184227734804
0	5220	-0.0055820876732468605
0	5132	-0.016285641118884087
0	5248	0.021435433998703957
0	5082	-0.0306884553283453
0	5182	0.01853705570101738
0	5182	0.0
0	5156	-0.004831456579267979
0	5280	0.02307978644967079
0	5244	-0.006706408224999905
0	5208	-0.006717170123010874
0	5288	0.014957929961383343
0	5258	-0.005611112806946039
0	5480	0.04157407209277153
0	5336	-0.02694711647927761
0	5436	0.018727993592619896
0	5308	-0.02397392876446247
0	5280	-0.005249278154224157
0	5362	0.015392509289085865
0	5348	-0.002628976246342063
0	5358	0.0018794401548802853
0	5314	-0.008276069536805153
0	5342	0.005273665767163038
0	5342	0.0
0	5346	0.0007552870083600283
0	5390	0.008319887332618237
0	5398	0.0015128020895645022
0	5270	-0.024210937321186066
0	5270	0.0
0	5368	0.01854257844388485
0	5370	0.0003781242703553289
0	5294	-0.014357863925397396
0	5374	0.015106501057744026
0	5342	-0.00603341031819582
0	5440	0.018466409295797348
0	5406	-0.006392339244484901
0	5316	-0.016897177323698997
0	5290	-0.004877316765487194
0	5384	0.017618613317608833
0	5416	0.005993931088596582
0	5420	0.0007484375964850187
0	5468	0.008969392627477646
0	5468	0.0
0	5482	0.0026097330264747143
0	5472	-0.0018640718189999461
0	5348	-0.02309497445821762
0	5360	0.002236219123005867
0	5236	-0.02310013957321644
0	5238	0.000372684677131474
0	5214	-0.004475663416087627
0	5208	-0.001119848689995706
0	5258	0.009340789169073105
0	5266	0.0014950477052479982
0	5450	0.034402381628751755
0	5910	0.08594810217618942
0	5738	-0.032024625688791275
0	5366	-0.06911329180002213
1	4554	-0.15089011192321777
0	4728	0.03247763216495514
0	5328	0.11237077414989471
0	5470	0.02660105936229229
0	5490	0.003744289977476001
0	5468	-0.004113687202334404
0	5502	0.006353794131428003
0	5534	0.00597408739849925
0	5428	-0.01977759413421154
0	5458	0.005596666596829891
0	5472	0.00260947342030704
0	5494	0.004095969721674919
0	5416	-0.014512168243527412
0	5446	0.0055816033855080605
0	5518	0.013393688015639782
0	5390	-0.023803619667887688
0	5492	0.018977684900164604
0	5482	-0.0018604419892653823
0	5446	-0.006697176024317741
0	5462	0.002974715083837509
0	5522	0.01114813331514597
0	5554	0.005935158114880323
0	5576	0.004072465002536774
0	5554	-0.0040633887983858585
0	5500	-0.009952571243047714
0	5538	0.006993264425545931
0	5488	-0.00918633583933115
0	5318	-0.031226273626089096
0	5270	-0.008848905563354492
0	5214	-0.01035349816083908
0	5250	0.006662060506641865
0	5234	-0.0029482583049684763
0	5182	-0.009552150964736938
0	5132	-0.009192978963255882
0	5160	0.0051587545312941074
0	5216	0.010338461957871914
0	5212	-0.0007396084838546813
0	5234	0.004075130447745323
0	5246	0.0022269233595579863
0	5248	0.0003715722414199263
0	5340	0.017114581540226936
0	5394	0.010053744539618492
0	5240	-0.028689594939351082
0	5260	0.0037299981340765953
0	5382	0.022779326885938644
0	5338	-0.008222454227507114
0	5376	0.007103511597961187
0	5372	-0.0007482789224013686
0	5330	-0.00786232203245163
0	5412	0.015361365862190723
0	5396	-0.002998276147991419
0	5372	-0.004500956274569035
0	5454	0.015395784750580788
0	5274	-0.03382144495844841
0	5308	0.0063997190445661545
0	5374	0.012437966652214527
0	5336	-0.007168638985604048
0	5304	-0.006042524706572294
0	5326	0.004154601600021124
0	5362	0.006796042900532484
0	5356	-0.0011316200252622366
0	5406	0.009423886425793171
0	5342	-0.012049553915858269
0	5320	-0.004137879237532616
0	5352	0.006011647637933493
0	5286	-0.012384133413434029
0	5356	0.013128938153386116
0	5302	-0.010118928737938404
0	5448	0.02734697051346302
0	5438	-0.0018707207636907697
0	5420	-0.003363312454894185
0	5478	0.010831943713128567
0	5442	-0.006719761062413454
0	5526	0.015659760683774948
0	5408	-0.021961933001875877
0	5410	0.00037217611679807305
0	5308	-0.01897250860929489
0	5238	-0.013025841675698757
0	5206	-0.005959623493254185
0	5182	-0.004473160952329636
0	5250	0.012692092917859554
0	5232	-0.0033627261873334646
0	5250	0.0033656603191047907
0	5588	0.06328007578849792
0	6174	0.10949587821960449
0	5790	-0.07136662304401398
0	5180	-0.11307743936777115
0	4390	-0.1465858370065689
0	4624	0.04366594925522804
0	5166	0.10158436745405197
0	5442	0.051792729645967484
0	5420	-0.004126186482608318
0	5474	0.010127025656402111
0	5442	-0.0059962524101138115
0	5524	0.015353696420788765
0	5418	-0.01982617750763893
0	5464	0.008596737869083881
0	5502	0.007096878252923489
0	5454	-0.008953331038355827
0	5492	0.007087789010256529
0	5502	0.001864581718109548
0	5448	-0.010063611902296543
0	5522	0.013793446123600006
0	5472	-0.009315266273915768
0	5534	0.011554804630577564
0	5452	-0.015270208939909935
0	5470	0.003351123072206974
0	5516	0.008555380627512932
0	5596	0.014853323809802532
0	5596	0.0
0	5494	-0.018844222649931908
0	5508	0.0025825812481343746
0	5438	-0.012891028076410294
0	5426	-0.0022073432337492704
0	5394	-0.005892100743949413
0	5300	-0.017391303554177284
0	5244	-0.01039218157529831
0	5166	-0.014469096437096596
0	5182	0.002953846240416169
0	5134	-0.008831213228404522
0	5044	-0.016561774536967278
0	5110	0.012175025418400764
0	5080	-0.005544671323150396
0	5182	0.018897753208875656
0	5202	0.0037114014849066734
0	5272	0.013015829026699066
0	5298	0.004838829394429922
0	5282	-0.0029808110557496548
0	5350	0.012685777619481087
0	5290	-0.011200577020645142
0	5370	0.014952898025512695
0	5348	-0.004115431569516659
0	5356	0.0014974543591961265
0	5414	0.010867799632251263
0	5330	-0.01574527658522129
0	5434	0.019519031047821045
0	5326	-0.020272046327590942
0	5370	0.008266429416835308
0	5326	-0.00827399455010891
0	5338	0.0022603694815188646
0	5352	0.0026413765735924244
0	5278	-0.013974041678011417
0	5326	0.009077385067939758
0	5292	-0.006434356793761253
0	5322	0.005682176910340786
0	5330	0.0015159363392740488
0	5324	-0.0011367368279024959
0	5342	0.0034084885846823454
0	5320	-0.004161307588219643
0	5330	0.0018898590933531523
0	5336	0.001132517121732235
0	5344	0.0015072537353262305
0	5374	0.005643907003104687
0	5330	-0.008262497372925282
0	5374	0.00825484935194254
0	5324	-0.009370432235300541
0	5462	0.025853995233774185
0	5450	-0.002245873212814331
0	5416	-0.006356644909828901
0	5474	0.010839231312274933
0	5450	-0.004480063449591398
0	5580	0.02425493858754635
0	5482	-0.018258146941661835
0	5378	-0.019360844045877457
0	5338	-0.0074481419287621975
0	5182	-0.02904631197452545
0	5216	0.00634052325040102
0	5170	-0.008584225550293922
0	5242	0.013452914543449879
0	5226	-0.002991101471707225
0	5290	0.01197276171296835
0	5818	0.0988134890794754
0	6112	0.05483642593026161
0	5542	-0.10579849779605865
1	4408	-0.21015827357769012
0	4590	0.03392062708735466
0	5040	0.08425704389810562
0	5528	0.091534323990345
0	5418	-0.020608771592378616
0	5486	0.012732175178825855
0	5528	0.007856341078877449
0	5578	0.009341604076325893
0	5318	-0.04850565269589424
0	5450	0.024634525179862976
