0	5520	-0.004052211996167898
0	5518	-0.00036869983887299895
0	5516	-0.00036911264760419726
0	5504	-0.0022181146778166294
0	5572	0.012593059800565243
0	5582	0.0018549204105511308
0	5502	-0.0148595767095685
0	5538	0.006701331119984388
0	5546	0.0014912019250914454
0	5512	-0.006344546563923359
0	5586	0.01380974892526865
0	5508	-0.014530551619827747
0	5564	0.010409954003989697
0	5516	-0.008894049562513828
0	5580	0.011826010420918465
0	5482	-0.018048103898763657
0	5552	0.012855988927185535
0	5494	-0.010623618960380554
0	5514	0.003655683482065797
0	5556	0.0076619964092969894
0	5530	-0.004732377827167511
0	5618	0.015994571149349213
0	5512	-0.01922658272087574
0	5498	-0.0025369978975504637
0	5530	0.005795631557703018
0	5522	-0.0014478589873760939
0	5580	0.010490522719919682
0	5558	-0.003976574633270502
0	5628	0.012649078853428364
0	5610	-0.003249488305300474
0	5646	0.006496318615972996
0	5640	-0.0010818998562172055
0	5660	0.0036036900710314512
0	5638	-0.003960633650422096
0	5454	-0.03309868648648262
0	5394	-0.010800691321492195
0	5408	0.00252300756983459
0	5432	0.004327599424868822
0	5460	0.005052084568887949
0	5388	-0.012997797690331936
0	5508	0.021679172292351723
0	5744	0.04265574365854263
0	6012	0.04837079718708992
0	6680	0.1202419176697731
0	6256	-0.07579188048839569
0	5418	-0.14919528365135193
0	4984	-0.07729755342006683
0	5240	0.04574914276599884
0	5392	0.027204716578125954
0	5364	-0.005015044938772917
0	5374	0.001793143106624484
0	5388	0.002512743230909109
0	5386	-0.0003594579466152936
0	5412	0.004676483105868101
0	5488	0.013676771894097328
0	5490	0.00036000573891215026
0	5430	-0.010802246630191803
0	5464	0.006126788444817066
0	5464	0.0
0	5582	0.021296564489603043
0	5542	-0.007220390252768993
0	5604	0.011198612861335278
0	5614	0.00180661934427917
0	5596	-0.003252816153690219
0	5698	0.01843728870153427
0	5726	0.005053787026554346
0	5772	0.008286098018288612
0	5800	0.00503271259367466
0	5818	0.003228197805583477
0	5848	0.005368839483708143
0	5810	-0.006781919859349728
0	5762	-0.008551271632313728
0	5636	-0.022444691509008408
0	5564	-0.012854235246777534
0	5316	-0.044571712613105774
0	5072	-0.04410116747021675
0	5044	-0.00507136108353734
0	5036	-0.0014484355924651027
0	5082	0.008338771760463715
0	5048	-0.006175006739795208
0	5064	0.00291145546361804
0	5176	0.020418580621480942
0	5216	0.007301757112145424
0	5274	0.010598511435091496
0	5284	0.0018288667779415846
0	5320	0.00659211864694953
0	5374	0.009898449294269085
0	5422	0.00880163349211216
0	5406	-0.0029346311930567026
0	5440	0.006238303147256374
0	5548	0.01983300969004631
0	5508	-0.007345289923250675
0	5518	0.0018374021165072918
0	5480	-0.006986236199736595
0	5544	0.011774662882089615
0	5556	0.0022098361514508724
0	5494	-0.01142941415309906
0	5520	0.004801181610673666
0	5526	0.0011098779505118728
0	5458	-0.012601304799318314
0	5498	0.007430432830005884
0	5482	-0.0029779260512441397
0	5490	0.001491554081439972
0	5490	0.0
0	5506	0.0029871922452002764
0	5514	0.0014918321976438165
0	5536	0.004091298207640648
0	5506	-0.0055620791390538216
0	5532	0.004806506913155317
0	5560	0.005161924287676811
0	5556	-0.0007351049571298063
0	5512	-0.008061856962740421
0	5546	0.006216858513653278
0	5470	-0.013868613168597221
0	5560	0.01640380173921585
0	5564	0.0007278373232111335
0	5544	-0.003633809043094516
0	5624	0.014520286582410336
0	5552	-0.01305230613797903
0	5602	0.009056111797690392
0	5646	0.007961591705679893
0	5676	0.0054251509718596935
0	5636	-0.007226217072457075
0	5636	0.0
0	5540	-0.017314352095127106
0	5454	-0.015511146746575832
0	5462	0.0014437827048823237
0	5480	0.003249136731028557
0	5404	-0.01372187864035368
0	5410	0.0010841023176908493
0	5458	0.008675326593220234
0	5708	0.04519487917423248
0	5852	0.025996847078204155
0	6440	0.10592304170131683
0	6616	0.03152502328157425
1	5566	-0.18683716654777527
0	5132	-0.0772022157907486
0	5360	0.040655240416526794
0	5426	0.011778843589127064
0	5430	0.000714319699909538
0	5412	-0.0032169283367693424
0	5408	-0.0007154867053031921
0	5452	0.007875237613916397
0	5456	0.0007163324044086039
0	5502	0.00823851116001606
0	5454	-0.008599684573709965
0	5472	0.003227001754567027
0	5486	0.002510970691218972
0	5478	-0.0014360251370817423
0	5520	0.007542470935732126
0	5538	0.0032340751495212317
0	5592	0.009708505123853683
0	5598	0.001079266075976193
0	5690	0.0165525171905756
0	5690	0.0
0	5706	0.002875181147828698
0	5814	0.01937822252511978
0	5802	-0.002148612402379513
0	5794	-0.0014296607114374638
0	5830	0.006418561562895775
0	5790	-0.007113977801054716
0	5726	-0.011360006406903267
0	5638	-0.015618344768881798
0	5410	-0.04051700606942177
0	5244	-0.029680311679840088
0	5110	-0.02415633015334606
0	5034	-0.013738250359892845
0	5008	-0.0047027044929564
0	5066	0.010512960143387318
0	5054	-0.0021798366215080023
0	5152	0.017842620611190796
0	5204	0.00948247592896223
0	5200	-0.0007303268066607416
0	5226	0.004754416178911924
0	5292	0.01208584662526846
0	5322	0.005500617437064648
0	5394	0.013212140649557114
0	5380	-0.002570253796875477
0	5400	0.003674174193292856
0	5430	0.0055138953030109406
0	5504	0.013608445413410664
0	5468	-0.006621704902499914
0	5496	0.005154133308678865
0	5514	0.003315446199849248
0	5538	0.004425377119332552
0	5538	0.0
0	5492	-0.008498688228428364
0	5536	0.008145332336425781
0	5510	-0.004821064416319132
0	5484	-0.0048295422457158566
0	5522	0.007073715794831514
0	5502	-0.0037292095366865396
0	5514	0.002240645233541727
0	5486	-0.005232210271060467
0	5524	0.007097497116774321
0	5478	-0.008576755411922932
0	5516	0.007068978156894445
0	5530	0.0025965997483581305
0	5482	-0.008873988874256611
0	5504	0.00405684532597661
0	5540	0.006620162166655064
0	5534	-0.0011007423745468259
0	5560	0.004760277457535267
0	5506	-0.009865055792033672
0	5594	0.01604902185499668
0	5562	-0.005825313273817301
0	5620	0.010543026961386204
0	5574	-0.00835027638822794
0	5614	0.007252595853060484
0	5654	0.007243227679282427
0	5566	-0.0159135852009058
0	5590	0.004338447470217943
0	5438	-0.027456646785140038
0	5448	0.001806989312171936
0	5392	-0.01012316532433033
0	5372	-0.0036185996141284704
0	5444	0.013040013611316681
0	5410	-0.006159569136798382
0	5662	0.04568804055452347
0	5902	0.04347248375415802
0	6396	0.08925560116767883
0	6688	0.05248211696743965
1	5718	-0.17311124503612518
0	5106	-0.10908831655979156
0	5328	0.03966079652309418
0	5442	0.020390156656503677
0	5408	-0.006082579959183931
0	5408	0.0
0	5420	0.0021497413981705904
0	5404	-0.0028673834167420864
0	5456	0.009324566461145878
0	5504	0.008611615747213364
0	5516	0.0021532904356718063
0	5460	-0.010051333345472813
0	5500	0.0071815005503594875
0	5542	0.0075448197312653065
0	5532	-0.0017966007580980659
0	5562	0.005392644554376602
0	5606	0.007909780368208885
0	5668	0.01114613376557827
0	5670	0.00035952255711890757
0	5698	0.005030181258916855
0	5732	0.006104129366576672
0	5714	-0.003225922118872404
0	5768	0.009662412106990814
0	5832	0.011426122859120369
0	5768	-0.011394929140806198
0	5800	0.005686529912054539
0	5696	-0.01843862608075142
0	5530	-0.029424970969557762
0	5344	-0.033042777329683304
0	5220	-0.022166607901453972
0	5104	-0.020919494330883026
0	5010	-0.01701480709016323
0	5054	0.007968993857502937
0	5084	0.005442407447844744
0	5138	0.009817586280405521
0	5112	-0.004734733607620001
0	5268	0.028459535911679268
0	5264	-0.0007304068421944976
0	5284	0.0036551489029079676
0	5320	0.006586168892681599
0	5294	-0.004762020893394947
0	5330	0.006602515932172537
0	5452	0.022392991930246353
0	5400	-0.009547357447445393
0	5464	0.011760815046727657
0	5490	0.00477982172742486
0	5510	0.003678408917039633
0	5550	0.007361150812357664
0	5532	-0.0033149172086268663
0	5500	-0.00589818274602294
0	5556	0.010334392078220844
0	5500	-0.01034559216350317
0	5562	0.011469163000583649
0	5484	-0.01444729883223772
0	5532	0.008909787982702255
0	5496	-0.006692112889140844
0	5464	-0.005959771573543549
0	5512	0.008952551521360874
0	5502	-0.0018653236329555511
0	5504	0.00037269858876243234
0	5554	0.009301056154072285
0	5554	0.0
0	5534	-0.003697632346302271
0	5540	0.001106017967686057
0	5592	0.009558705613017082
0	5508	-0.015398151241242886
0	5474	-0.006217540707439184
0	5596	0.02228201925754547
0	5558	-0.006926301401108503
0	5588	0.005459045059978962
0	5632	0.007993604987859726
0	5656	0.004351241979748011
0	5614	-0.007599701173603535
0	5624	0.0018076864071190357
0	5496	-0.023107195273041725
0	5404	-0.01660509966313839
0	5402	-0.0003611672727856785
0	5418	0.0028912178240716457
0	5474	0.010127314366400242
0	5462	-0.0021708980202674866
0	5456	-0.0010856977896764874
0	5758	0.05467976629734039
0	5834	0.013739078305661678
0	6278	0.08013379573822021
0	6614	0.06035349518060684
0	5814	-0.14277386665344238
0	5256	-0.0993967279791832
0	5082	-0.03103300742805004
0	5328	0.04398669674992561
0	5408	0.01431946735829115
0	5354	-0.009671179577708244
0	5406	0.009324121288955212
0	5422	0.002871500328183174
0	5418	-0.000718356401193887
0	5440	0.003953847568482161
0	5440	0.0
0	5496	0.010077621787786484
0	5496	0.0
0	5522	0.004681086167693138
0	5506	-0.0028812906239181757
0	5542	0.006486096885055304
0	5570	0.005047470331192017
0	5614	0.007935839705169201
0	5626	0.002164319856092334
0	5654	0.005050019361078739
0	5714	0.010811200365424156
0	5714	0.0
0	5742	0.005026448983699083
0	5796	0.009675106965005398
0	5770	-0.004649443551898003
0	5798	0.004997917450964451
0	5782	-0.002850153250619769
0	5756	-0.0046308389864861965
0	5558	-0.0352819599211216
0	5394	-0.029348956421017647
0	5224	-0.03064572438597679
0	5114	-0.019900137558579445
0	5056	-0.010501792654395103
0	5076	0.0036218762397766113
0	5152	0.013784097507596016
0	5100	-0.009445843286812305
0	5214	0.020740093663334846
0	5166	-0.00874285027384758
0	5266	0.018242627382278442
0	5320	0.00986013188958168
0	5338	0.0032891130540519953
0	5348	0.0018284209072589874
0	5394	0.008418329991400242
0	5426	0.005859875585883856
0	5436	0.001832284964621067
0	5446	0.0018330685561522841
0	5534	0.016140470281243324
0	5460	-0.013575657270848751
0	5490	0.005508832633495331
0	5528	0.006983668077737093
0	5516	-0.002207072451710701
0	5508	-0.0014731698902323842
0	5488	-0.0036875875666737556
0	5566	0.01440407708287239
0	5520	-0.008506756275892258
0	5476	-0.008149456232786179
0	5576	0.018558384850621223
0	5526	-0.009291032329201698
0	5588	0.011537316255271435
0	5522	-0.012279374524950981
0	5536	0.0026026498526334763
0	5552	0.002968717133626342
0	5508	-0.008141916245222092
0	5536	0.00516681419685483
0	5514	-0.0040481858886778355
0	5502	-0.002203209325671196
0	5500	-0.00036630037357099354
0	5544	0.008044562302529812
0	5500	-0.00802607275545597
0	5554	0.009836185723543167
0	5598	0.008003298193216324
0	5556	-0.007627488113939762
0	5610	0.009794437326490879
0	5604	-0.0010868515819311142
0	5630	0.004704633262008429
0	5618	-0.0021688316483050585
0	5596	-0.003972075413912535
0	5594	-0.0003609630512073636
0	5466	-0.023083025589585304
0	5452	-0.0025250704493373632
0	5376	-0.013713791035115719
0	5418	0.007585060782730579
0	5442	0.0043366700410842896
0	5468	0.004699361510574818
0	5592	0.022425580769777298
0	5796	0.03687769174575806
0	6006	0.037889264523983
0	6512	0.0910596027970314
0	6046	-0.08336812257766724
0	5398	-0.1156124398112297
0	5114	-0.05070704221725464
0	5340	0.040452975779771805
0	5432	0.016488440334796906
0	5408	-0.004303285852074623
0	5408	0.0
0	5386	-0.00395020330324769
0	5440	0.009702689945697784
0	5400	-0.007189761381596327
0	5444	0.007915567606687546
0	5458	0.002519435714930296
0	5504	0.008282915689051151
0	5552	0.008647921495139599
0	5526	-0.004684403073042631
0	5586	0.010815617628395557
0	5558	-0.005047834478318691
0	5570	0.002164294011890888
0	5684	0.020566727966070175
0	5646	-0.006851949729025364
0	5724	0.014060134068131447
0	5686	-0.0068392064422369
0	5752	0.011861969716846943
0	5710	-0.007531560957431793
0	5776	0.011814688332378864
0	5750	-0.004645013716071844
0	5768	0.0032103874254971743
0	5656	-0.019954863935709
0	5522	-0.02389443665742874
0	5384	-0.024678699672222137
0	5172	-0.038168855011463165
0	5068	-0.01882307603955269
0	5112	0.007979495450854301
0	5094	-0.0032643782906234264
0	5152	0.010534217581152916
0	5182	0.005457985680550337
0	5196	0.0025505556259304285
0	5192	-0.0007296695839613676
0	5194	0.00036526567419059575
0	5300	0.019388116896152496
0	5290	-0.0018301834352314472
0	5310	0.0036638090386986732
0	5370	0.01100136898458004
0	5436	0.012111425399780273
0	5432	-0.0007345469784922898
0	5460	0.005144789349287748
0	5458	-0.00036776872002519667
0	5494	0.006623897701501846
0	5510	0.0029453271999955177
0	5500	-0.0018427971517667174
0	5610	0.020288964733481407
0	5512	-0.01808829978108406
0	5520	0.0014781783102080226
0	5504	-0.002960587153211236
0	5494	-0.0018527209758758545
0	5498	0.0007423812639899552
0	5534	0.006691864691674709
0	5532	-0.00037231005262583494
0	5512	-0.0037259673699736595
0	5504	-0.0014904795680195093
0	5528	0.004468108993023634
0	5584	0.01040260586887598
0	5516	-0.012591504491865635
0	5546	0.005541258025914431
0	5560	0.0025787437334656715
0	5528	-0.005879542790353298
0	5470	-0.010634137317538261
0	5512	0.007687708362936974
0	5528	0.002922944026067853
0	5548	0.0036462636198848486
0	5528	-0.003640776500105858
0	5458	-0.012724342755973339
0	5510	0.009443899616599083
0	5544	0.006169628351926804
0	5532	-0.0021760943345725536
0	5622	0.01631084829568863
0	5568	-0.009776940569281578
0	5674	0.01917904056608677
0	5620	-0.009759859181940556
0	5572	-0.008669685572385788
0	5642	0.01263781264424324
0	5542	-0.018050542101264
0	5464	-0.014076881110668182
0	5398	-0.011915221810340881
0	5430	0.005780764389783144
0	5396	-0.00614443002268672
0	5470	0.013381393626332283
0	5528	0.010492167435586452
0	5644	0.020984841510653496
0	5808	0.029644625261425972
0	6126	0.05737655609846115
0	6600	0.08521705865859985
0	5914	-0.12258464097976685
0	5354	-0.09983242303133011
0	5174	-0.032125648111104965
0	5322	0.026475219056010246
0	5426	0.018627088516950607
0	5372	-0.009674298577010632
0	5398	0.004661893006414175
0	5406	0.0014355441089719534
0	5372	-0.006106248591095209
0	5412	0.0071905371733009815
0	5408	-0.0007192519842647016
0	5486	0.01403399370610714
0	5452	-0.0061195106245577335
0	5538	0.01548619382083416
0	5454	-0.015133680775761604
0	5574	0.021634355187416077
0	5558	-0.00288631534203887
0	5558	0.0
0	5644	0.015521037392318249
0	5634	-0.0018047501798719168
0	5704	0.01262626238167286
0	5704	0.0
0	5692	-0.0021574196871370077
0	5718	0.004667081870138645
0	5748	0.005374738946557045
0	5830	0.01466660387814045
0	5790	-0.007141581736505032
0	5672	-0.0210493765771389
0	5566	-0.018924064934253693
0	5368	-0.03546692430973053
0	5174	-0.035007938742637634
0	5098	-0.013775769621133804
0	5132	0.006172391586005688
0	5082	-0.009079353883862495
0	5128	0.008365157060325146
0	5192	0.011659541167318821
0	5176	-0.0029180748388171196
0	5268	0.016801606863737106
0	5316	0.008773425593972206
0	5284	-0.005850946996361017
0	5290	0.0010979091748595238
0	5386	0.017579197883605957
0	5376	-0.001832284964621067
0	5362	-0.002566389972344041
0	5448	0.015781940892338753
0	5464	0.002936282427981496
0	5444	-0.003672824939712882
0	5504	0.011026168242096901
0	5486	-0.0033089453354477882
0	5506	0.0036801688838750124
0	5468	-0.006997814867645502
0	5526	0.010696371085941792
0	5496	-0.0055386656895279884
0	5526	0.005545354913920164
0	5526	0.0
0	5482	-0.008153987117111683
0	5540	0.010771593078970909
0	5468	-0.013392358087003231
0	5500	0.005959697533398867
0	5502	0.0003726337745320052
0	5538	0.0067018307745456696
0	5534	-0.0007429696852341294
0	5500	-0.006298239808529615
0	5484	-0.002957158023491502
0	5464	-0.003687315620481968
0	5486	0.004047689028084278
0	5540	0.00991735514253378
0	5466	-0.01356023270636797
0	5498	0.00585680129006505
0	5498	0.0
0	5524	0.004747182130813599
0	5526	0.0003646485274657607
0	5504	-0.004007724113762379
0	5582	0.01419816818088293
0	5520	-0.011270677670836449
0	5534	0.0025438820011913776
0	5508	-0.004722349811345339
0	5524	0.002904935972765088
0	5604	0.014522922225296497
0	5566	-0.006893465761095285
0	5572	0.0010880471672862768
0	5652	0.014498182572424412
0	5604	-0.008692292496562004
0	5660	0.010134401731193066
0	5626	-0.006148059386759996
0	5540	-0.01554160751402378
0	5436	-0.018787937238812447
0	5460	0.004338394850492477
0	5440	-0.0036155031993985176
0	5422	-0.0032551297917962074
0	5480	0.010493812151253223
0	5398	-0.014841270633041859
0	5542	0.02608412131667137
0	5708	0.030061572790145874
0	5890	0.03291456773877144
0	6318	0.07720521837472916
0	6458	0.025128334760665894
1	5598	-0.15351660549640656
0	5050	-0.09774543344974518
0	5352	0.054010871797800064
0	5494	0.025417963042855263
0	5374	-0.02148381434381008
0	5410	0.006450996268540621
0	5404	-0.00107577012386173
0	5456	0.00933326967060566
0	5422	-0.0061048599891364574
0	5484	0.01113985851407051
0	5524	0.007188039366155863
0	5496	-0.005031627602875233
0	5500	0.000719269213732332
0	5530	0.005396653898060322
0	5484	-0.008276954293251038
0	5564	0.014409221708774567
0	5554	-0.0018015854293480515
0	5596	0.007571478374302387
0	5582	-0.0025242811534553766
0	5690	0.019468111917376518
0	5682	-0.0014398847706615925
0	5778	0.017255635932087898
0	5772	-0.001076297601684928
0	5746	-0.004654215648770332
0	5782	0.0064340862445533276
0	5702	-0.014265335164964199
0	5692	-0.0017814725870266557
0	5600	-0.016391105949878693
0	5380	-0.03926374390721321
0	5260	-0.02153676748275757
0	5130	-0.023499922826886177
0	5090	-0.007251193281263113
0	5104	0.002537304535508156
0	5152	0.00871238298714161
0	5182	0.0054565295577049255
0	5132	-0.009104814380407333
0	5326	0.03538639098405838
0	5286	-0.007299625314772129
0	5304	0.0032882315572351217
0	5340	0.006581192370504141
0	5368	0.005123200826346874
0	5396	0.005128080025315285
0	5402	0.0010995455086231232
0	5450	0.00880163349211216
0	5434	-0.002935312921181321
0	5508	0.013579974882304668
0	5484	-0.004405825398862362
0	5450	-0.00624426081776619
0	5524	0.013602607883512974
0	5528	0.0007355374400503933
0	5518	-0.0018406715244054794
0	5538	0.0036850508768111467
0	5542	0.0007380981696769595
0	5550	0.00147828774061054
0	5550	0.0
0	5488	-0.011487012729048729
0	5484	-0.0007420783513225615
0	5538	0.010030959732830524
0	5548	0.0018582985503599048
0	5518	-0.00556909991428256
0	5532	0.0025947708636522293
0	5504	-0.005176685284823179
0	5524	0.0036882224958389997
0	5494	-0.005518087185919285
0	5546	0.009544669650495052
0	5582	0.00659316498786211
0	5536	-0.008401519618928432
0	5554	0.003283353289589286
0	5564	0.0018211177084594965
0	5562	-0.00036364959669299424
0	5528	-0.006173735950142145
0	5534	0.0010884287767112255
0	5582	0.008700170554220676
0	5494	-0.01593298465013504
0	5574	0.01448068581521511
0	5526	-0.008681079372763634
0	5552	0.00470174103975296
0	5486	-0.011930298060178757
0	5526	0.0072289155796170235
0	5570	0.007951711304485798
0	5554	-0.0028908001258969307
0	5520	-0.006141618359833956
0	5570	0.009032770991325378
0	5536	-0.006141248624771833
0	5592	0.0101158507168293
0	5616	0.0043342686258256435
0	5652	0.0064963968470692635
0	5638	-0.002523826202377677
0	5594	-0.007927261292934418
0	5546	-0.008645533584058285
0	5550	0.0007203400018624961
0	5420	-0.023408520966768265
0	5410	-0.0018015637760981917
0	5426	0.002884476911276579
0	5436	0.0018035350367426872
0	5422	-0.002526619704440236
0	5458	0.006503282114863396
0	5598	0.025302423164248466
0	5754	0.028186658397316933
0	5978	0.040426887571811676
0	6598	0.11161651462316513
0	6166	-0.07727532833814621
0	5430	-0.13116000592708588
0	5064	-0.06528253853321075
0	5244	0.03218845650553703
0	5326	0.01469253096729517
0	5414	0.01578645221889019
0	5314	-0.017953965812921524
0	5366	0.009345682337880135
0	5450	0.015111356042325497
0	5334	-0.020883090794086456
0	5494	0.028842341154813766
0	5492	-0.0003605856036301702
0	5478	-0.0025252830237150192
0	5476	-0.00036088054184801877
0	5472	-0.0007222650456242263
0	5528	0.010120481252670288
0	5526	-0.0003617159673012793
0	5602	0.013754493556916714
0	5534	-0.012306058779358864
0	5618	0.015202702023088932
0	5724	0.01917649619281292
0	5660	-0.011557075195014477
0	5712	0.009376013651490211
0	5790	0.014039887115359306
0	5814	0.004310809541493654
0	5852	0.006809466052800417
0	5772	-0.014302059076726437
0	5826	0.009643890894949436
0	5696	-0.02320682629942894
0	5486	-0.03755096346139908
0	5182	-0.05472218617796898
0	5154	-0.005070136860013008
0	5098	-0.01015719398856163
0	5084	-0.0025387767236679792
0	5042	-0.007623703684657812
0	5142	0.018182920292019844
0	5176	0.006192401517182589
0	5230	0.009843237698078156
0	5242	0.002189195016399026
0	5342	0.018266398459672928
0	5332	-0.0018265508115291595
0	5380	0.008776100352406502
0	5424	0.008050253614783287
0	5426	0.0003660411457531154
0	5454	0.005126139614731073
0	5460	0.0010985791450366378
0	5448	-0.0021980705205351114
0	5464	0.0029321571346372366
0	5468	0.0007336577982641757
0	5534	0.012110240757465363
0	5476	-0.010647802613675594
0	5508	0.005883578676730394
0	5532	0.004416798707097769
0	5542	0.0018423671135678887
0	5578	0.006642638705670834
0	5538	-0.007391438353806734
0	5528	-0.0018514404073357582
0	5532	0.0007416930166073143
0	5566	0.006315867882221937
0	5480	-0.0159883014857769
0	5562	0.0152452252805233
0	5576	0.0025967282708734274
0	5536	-0.007399916183203459
0	5562	0.004796988796442747
0	5546	-0.002943340688943863
0	5566	0.00366784050129354
0	5502	-0.011706746183335781
0	5512	0.0018255504546687007
0	5470	-0.007654176559299231
0	5544	0.013467278331518173
0	5526	-0.0032718151342123747
0	5516	-0.0018155410652980208
0	5562	0.008344621397554874
0	5522	-0.007250141818076372
0	5492	-0.005434454418718815
0	5572	0.014488553628325462
0	5518	-0.009773165918886662
0	5608	0.01628173515200615
0	5516	-0.016629111021757126
0	5544	0.005059570074081421
0	5538	-0.0010841283947229385
0	5526	-0.0021674472372978926
0	5572	0.00830764789134264
0	5528	-0.007944532670080662
0	5586	0.01047322154045105
0	5534	-0.009389331564307213
0	5594	0.01083410531282425
0	5584	-0.001804967294447124
0	5588	0.0007217610836960375
0	5678	0.016237474977970123
0	5610	-0.012253724038600922
0	5648	0.006845695897936821
0	5546	-0.01836734637618065
0	5358	-0.033851511776447296
0	5438	0.014422556385397911
0	5364	-0.013349529355764389
0	5420	0.010114632546901703
0	5404	-0.00289132259786129
0	5456	0.00940291490405798
0	5586	0.023509271442890167
0	5824	0.04302915558218956
0	6006	0.03284566104412079
0	6626	0.11156295984983444
0	6226	-0.07151967287063599
1	5370	-0.15241260826587677
0	5260	-0.019599923864006996
0	5344	0.014995001256465912
0	5354	0.001786969369277358
0	5318	-0.006442837417125702
0	5430	0.020068088546395302
0	5390	-0.007172057405114174
0	5464	0.013280053623020649
0	5416	-0.008617284707725048
0	5450	0.006109613459557295
0	5480	0.005393355619162321
0	5462	-0.0032380700577050447
0	5562	0.017997048795223236
0	5458	-0.01872052438557148
0	5556	0.01765383966267109
0	5602	0.00828808918595314
0	5608	0.0010815487476065755
0	5652	0.007931453175842762
0	5638	-0.0025235835928469896
0	5708	0.012610945850610733
0	5754	0.008269811980426311
0	5778	0.0043065291829407215
0	5870	0.016467584297060966
0	5854	-0.0028562587685883045
0	5848	-0.0010682365391403437
0	5812	-0.006394543685019016
0	5734	-0.013836328871548176
0	5532	-0.035851623862981796
0	5366	-0.029545078054070473
0	5168	-0.035505931824445724
0	5086	-0.014798060990869999
0	5014	-0.013015655800700188
0	5016	0.0003620827046688646
0	5070	0.009795622900128365
0	5108	0.006905073300004005
0	5166	0.010552745312452316
0	5254	0.016036739572882652
0	5230	-0.004377271980047226
0	5266	0.006575262174010277
0	5354	0.016087554395198822
0	5346	-0.0014633610844612122
0	5378	0.005858230870217085
0	5400	0.004029599018394947
0	5462	0.01136738620698452
0	5448	-0.002566766459494829
0	5426	-0.004036154132336378
0	5502	0.013958101160824299
0	5518	0.002940455684438348
0	5504	-0.0025750126224011183
0	5528	0.004417936783283949
0	5528	0.0
0	5534	0.0011072425404563546
0	5534	0.0
0	5538	0.0007408047677017748
0	5512	-0.004824643023312092
0	5592	0.014875971712172031
0	5536	-0.010427398607134819
0	5518	-0.003355788066983223
0	5572	0.010068240575492382
0	5546	-0.004841472953557968
0	5544	-0.000371549220290035
0	5492	-0.009632959961891174
0	5574	0.015145731158554554
0	5560	-0.002577003324404359
0	5536	-0.004404477775096893
0	5600	0.011714602820575237
0	5520	-0.014604580588638783
0	5548	0.005103342700749636
0	5542	-0.0010914646554738283
0	5558	0.00290570966899395
0	5592	0.006167016923427582
0	5568	-0.004346723668277264
0	5538	-0.005427179392427206
0	5570	0.00578417768701911
0	5514	-0.010115728713572025
0	5564	0.009028312750160694
0	5528	-0.006494990549981594
0	5590	0.011184067465364933
0	5562	-0.005048683844506741
0	5612	0.009012365713715553
0	5504	-0.019456887617707253
0	5554	0.009009117260575294
0	5606	0.009368356317281723
0	5602	-0.00072033132892102
0	5612	0.001800136873498559
0	5578	-0.006116794887930155
0	5642	0.011514933779835701
0	5654	0.002157678361982107
0	5626	-0.005030482076108456
0	5530	-0.017241792753338814
0	5450	-0.014369536191225052
0	5414	-0.00646993238478899
0	5444	0.0053941309452056885
0	5464	0.0035988916642963886
0	5408	-0.010082702152431011
0	5452	0.00792821403592825
0	5618	0.02993759885430336
0	5868	0.04506020247936249
0	6058	0.034180041402578354
0	6612	0.09935437887907028
0	6266	-0.06166312098503113
0	5464	-0.142360121011734
0	5002	-0.08205844461917877
0	5272	0.04810890555381775
0	5344	0.012851787731051445
0	5414	0.012507445178925991
0	5336	-0.01394932996481657
0	5400	0.01145871914923191
0	5320	-0.014339659363031387
0	5428	0.019386570900678635
0	5394	-0.006109906360507011
0	5444	0.008991080336272717
0	5502	0.010436534881591797
0	5464	-0.00684199808165431
0	5540	0.013695338740944862
0	5540	0.0
0	5548	0.0014425677945837379
0	5610	0.011186220683157444
0	5620	0.0018047066405415535
0	5694	0.013355311006307602
0	5648	-0.00829376745969057
0	5770	0.021970370784401894
0	5804	0.006109833251684904
0	5816	0.002151771681383252
0	5858	0.007515389006584883
0	5884	0.004639929626137018
0	5812	-0.012816101312637329
0	5820	0.0014223739271983504
0	5618	-0.03592516481876373
0	5514	-0.018544495105743408
0	5230	-0.050973400473594666
0	5162	-0.012281018309295177
0	4968	-0.03510084003210068
0	4958	-0.001809692825190723
0	5062	0.01885651983320713
0	5030	-0.005811912007629871
0	5154	0.02257363684475422
0	5170	0.002915947698056698
0	5154	-0.0029200278222560883
0	5228	0.01351878046989441
0	5220	-0.001463271793909371
0	5290	0.012817226350307465
0	5326	0.00659791799262166
0	5350	0.004403346683830023
0	5356	0.001101604662835598
0	5426	0.012866542674601078
0	5394	-0.005885959602892399
0	5502	0.019883887842297554
0	5436	-0.012159324251115322
0	5448	0.00221328716725111
0	5534	0.015885917469859123
0	5474	-0.011090983636677265
0	5500	0.00481487438082695
0	5530	0.005566069390624762
0	5472	-0.010780135169625282
0	5490	0.003353578969836235
0	5564	0.013820753432810307
0	5566	0.0003741114924196154
0	5492	-0.013864082284271717
0	5544	0.009749999269843102
0	5536	-0.0014997187536209822
0	5522	-0.002619499107822776
0	5520	-0.00037337583489716053
0	5522	0.0003720976528711617
0	5590	0.012607223354279995
0	5530	-0.011087840422987938
0	5532	0.0003684598486870527
0	5498	-0.006249310448765755
0	5544	0.008437993004918098
0	5516	-0.005123951006680727
0	5500	-0.002922837156802416
0	5564	0.01167144812643528
0	5514	-0.009103156626224518
0	5604	0.016367008909583092
0	5542	-0.011257716454565525
0	5516	-0.004715669434517622
0	5588	0.013051675632596016
0	5508	-0.014484881423413754
0	5586	0.014122247695922852
0	5508	-0.014109474606812
0	5552	0.007956312038004398
0	5554	0.00036161133903078735
0	5538	-0.0028914965223520994
0	5554	0.002890834817662835
0	5562	0.00144520855974406
0	5602	0.007222128566354513
0	5630	0.005052084568887949
0	5642	0.002164319856092334
0	5686	0.007932215929031372
0	5612	-0.013325009495019913
0	5574	-0.006839781068265438
0	5432	-0.025553356856107712
0	5406	-0.0046813106164336205
0	5406	0.0
0	5404	-0.00036059858393855393
0	5424	0.003610021434724331
0	5432	0.00144493009429425
0	5636	0.036867912858724594
0	5834	0.03575383871793747
0	6062	0.04109934717416763
0	6694	0.11355197429656982
0	5950	-0.13272599875926971
0	5296	-0.1164032518863678
0	5132	-0.0292276069521904
0	5324	0.034313902258872986
0	5414	0.01610555686056614
0	5324	-0.01611536182463169
0	5354	0.005380265414714813
0	5368	0.0025131041184067726
0	5396	0.00503277312964201
0	5408	0.002158351009711623
0	5478	0.012601260095834732
0	5472	-0.0010806007776409388
0	5500	0.0050448025576770306
0	5518	0.003244139486923814
0	5506	-0.002163331490010023
0	5550	0.007936794310808182
0	5612	0.011189047247171402
0	5612	0.0
0	5656	0.007945585064589977
0	5658	0.0003610673302318901
0	5662	0.0007217698148451746
0	5772	0.019821248948574066
0	5808	0.0064727249555289745
0	5842	0.00609843572601676
0	5870	0.005009124055504799
0	5832	-0.006780064199119806
0	5846	0.002491990104317665
0	5722	-0.02204444445669651
0	5612	-0.019568543881177902
0	5364	-0.044236212968826294
0	5152	-0.03811624273657799
0	5052	-0.018065758049488068
0	4994	-0.010493558831512928
0	5056	0.011226596310734749
0	5050	-0.001088205142877996
0	5100	0.009088375605642796
0	5118	0.0032762615010142326
0	5174	0.01020742952823639
0	5214	0.007299625314772129
0	5222	0.0014615431427955627
0	5300	0.01426620502024889
0	5328	0.005126765463501215
0	5386	0.010629069991409779
0	5398	0.00220065051689744
0	5432	0.006239753682166338
0	5498	0.012117947451770306
0	5422	-0.013958442956209183
0	5476	0.00992939155548811
0	5484	0.0014722481137141585
0	5514	0.005526761990040541
0	5446	-0.012538413517177105
0	5546	0.01846335642039776
0	5478	-0.012572569772601128
0	5510	0.005928560625761747
0	5476	-0.006312037352472544
0	5500	0.004466446116566658
0	5498	-0.00037297196104191244
0	5524	0.004859147127717733
0	5486	-0.007110601291060448
0	5530	0.008239803835749626
0	5496	-0.0063605294562876225
0	5552	0.010453742928802967
0	5542	-0.0018609497928991914
0	5520	-0.0040802196599543095
0	5524	0.0007397361332550645
0	5532	0.0014751619892194867
0	5514	-0.0033103246241807938
0	5534	0.003669230965897441
0	5564	0.005491756368428469
0	5512	-0.009498758241534233
0	5542	0.005470392759889364
0	5572	0.0054623582400381565
0	5524	-0.008726850152015686
0	5514	-0.0018165743676945567
0	5496	-0.003267538733780384
0	5538	0.007621305529028177
0	5552	0.002539820736274123
0	5478	-0.013414221815764904
0	5556	0.014139143750071526
0	5552	-0.000724768964573741
0	5562	0.0018115066923201084
0	5528	-0.006154811475425959
0	5614	0.015569744631648064
0	5602	-0.0021707406267523766
0	5624	0.003977485001087189
0	5664	0.00722534628584981
0	5550	-0.02057192474603653
0	5646	0.017318308353424072
0	5472	-0.03136642277240753
0	5406	-0.011898609809577465
0	5398	-0.0014433312462642789
0	5424	0.004693592432886362
0	5472	0.008671772666275501
0	5434	-0.006868049036711454
0	5444	0.0018083183094859123
0	5608	0.029670726507902145
0	5884	0.049910787492990494
0	6322	0.07902998477220535
0	6764	0.07937552779912949
1	5828	-0.16689053177833557
0	4972	-0.15234027802944183
0	5226	0.04535714164376259
0	5418	0.03435647115111351
0	5374	-0.007878339849412441
0	5354	-0.0035840582568198442
0	5366	0.0021522606257349253
0	5366	0.0
0	5426	0.010784383863210678
0	5438	0.0021575489081442356
0	5438	0.0
0	5454	0.002880737418308854
0	5412	-0.007566840387880802
0	5504	0.016586538404226303
0	5556	0.00938120111823082
0	5554	-0.00036091526271775365
0	5592	0.0068602790124714375
0	5572	-0.0036122382152825594
0	5622	0.00902939960360527
0	5656	0.006140879355370998
0	5710	0.009742368943989277
0	5750	0.007203400135040283
0	5762	0.0021564634516835213
0	5838	0.013630005531013012
0	5788	-0.008947531692683697
0	5876	0.015714474022388458
0	5826	-0.008905776776373386
0	5708	-0.020990464836359024
0	5476	-0.04131250083446503
0	5278	-0.035436030477285385
0	5170	-0.01950162462890148
0	5050	-0.021754631772637367
0	5090	0.007248127833008766
0	4964	-0.02285037189722061
0	5078	0.020731041207909584
0	5110	0.00582969980314374
0	5208	0.017879948019981384
0	5242	0.006209213752299547
0	5238	-0.000731047592125833
0	5292	0.009880458004772663
0	5338	0.008424188010394573
0	5336	-0.000366492778994143
0	5374	0.006968385074287653
0	5430	0.0102715864777565
0	5414	-0.002936067059636116
0	5472	0.010652495548129082
0	5480	0.0014700477477163076
0	5554	0.013607276603579521
0	5512	-0.00772390142083168
0	5498	-0.002576370956376195
0	5552	0.00994707178324461
0	5534	-0.00331891025416553
0	5552	0.003323322394862771
0	5528	-0.004436830524355173
0	5550	0.004074878990650177
0	5544	-0.0011129660997539759
0	5548	0.0007435036823153496
0	5532	-0.002979146083816886
0	5544	0.0022368028294295073
0	5540	-0.0007452860591001809
0	5532	-0.0014881506795063615
0	5436	-0.01781781204044819
0	5502	0.012220562435686588
0	5498	-0.0007387615623883903
0	5540	0.00773157924413681
0	5526	-0.0025699075777083635
0	5498	-0.005126765463501215
0	5528	0.005483257584273815
0	5550	0.00401406129822135
0	5568	0.0032780119217932224
0	5546	-0.003999757580459118
0	5508	-0.006899974774569273
0	5566	0.010520587675273418
0	5574	0.001449432922527194
0	5544	-0.005430650431662798
0	5482	-0.011214547790586948
0	5550	0.012299085035920143
0	5538	-0.0021695110481232405
0	5618	0.014464803040027618
0	5656	0.006866394076496363
0	5650	-0.0010831367690116167
0	5622	-0.00505165895447135
0	5678	0.01009797491133213
0	5602	-0.01369402278214693
0	5602	0.0
0	5452	-0.02700723707675934
0	5428	-0.004323545377701521
0	5402	-0.004687218461185694
0	5440	0.0068559059873223305
0	5426	-0.0025274406652897596
0	5448	0.0039744190871715546
0	5648	0.036149367690086365
0	5808	0.028882605955004692
0	5998	0.03423505648970604
0	6574	0.10347553342580795
0	6388	-0.03320835530757904
1	5494	-0.15879970788955688
0	5132	-0.0643029659986496
0	5344	0.037746600806713104
0	5368	0.004278430715203285
0	5340	-0.004997441545128822
0	5412	0.01286633312702179
0	5390	-0.003933629021048546
0	5382	-0.001431912649422884
0	5374	-0.0014335548039525747
0	5460	0.015426377765834332
0	5448	-0.002152801025658846
0	5456	0.0014360765926539898
0	5518	0.011135057546198368
0	5548	0.005391158629208803
0	5528	-0.003596432274207473
0	5604	0.013676444068551064
0	5568	-0.0064790151081979275
0	5670	0.01836933195590973
0	5642	-0.005040504038333893
0	5676	0.006119143217802048
0	5768	0.01653546281158924
0	5764	-0.0007174716447480023
0	5816	0.009306986816227436
0	5764	-0.009286155924201012
0	5848	0.01497059315443039
0	5756	-0.01635749451816082
0	5704	-0.009239626117050648
0	5506	-0.03520333766937256
0	5272	-0.041725609451532364
0	5196	-0.013657601550221443
0	5080	-0.02099572867155075
0	5040	-0.007258035242557526
0	5054	0.0025417266879230738
0	5062	0.0014549687039107084
0	5094	0.005830691196024418
0	5140	0.008394160307943821
0	5178	0.006945798639208078
0	5230	0.009517069905996323
0	5308	0.014288854785263538
0	5212	-0.017593372613191605
0	5316	0.01908840611577034
0	5380	0.011756205931305885
0	5380	0.0
0	5440	0.011035904288291931
0	5456	0.0029448573477566242
0	5468	0.0022096193861216307
0	5480	0.0022114652674645185
0	5518	0.007006760686635971
0	5464	-0.009966286830604076
0	5488	0.004434316419064999
0	5470	-0.0033295925240963697
0	5476	0.00111190730240196
0	5572	0.017822224646806717
0	5500	-0.013386880978941917
0	5562	0.011546483263373375
0	5480	-0.01529831625521183
0	5520	0.007475424557924271
0	5496	-0.004490401595830917
0	5580	0.015717387199401855
0	5492	-0.016434263437986374
0	5524	0.005965104326605797
0	5488	-0.006692278664559126
0	5502	0.002595348283648491
0	5512	0.001848702086135745
0	5496	-0.0029497435316443443
0	5554	0.010666470043361187
0	5522	-0.005870051681995392
0	5494	-0.005125514231622219
0	5584	0.01644837111234665
0	5562	-0.004013963509351015
0	5570	0.001456522848457098
0	5538	-0.005817124154418707
0	5524	-0.0025425576604902744
0	5590	0.011975902132689953
0	5524	-0.011965046636760235
0	5538	0.0025369978975504637
0	5588	0.009056877344846725
0	5578	-0.0018101950408890843
0	5608	0.005428619682788849
0	5552	-0.010124629363417625
0	5638	0.015542542561888695
0	5682	0.007943958975374699
0	5630	-0.009376690723001957
0	5548	-0.014781166799366474
0	5458	-0.016218554228544235
0	5438	-0.0036063760053366423
0	5372	-0.011904045939445496
0	5412	0.007220998872071505
0	5438	0.004696022719144821
0	5434	-0.000723083212506026
0	5560	0.022785086184740067
0	5782	0.040136441588401794
0	5946	0.029597902670502663
0	6518	0.10295670479536057
0	6114	-0.07228139787912369
0	5364	-0.13369300961494446
0	5022	-0.06103292107582092
0	5314	0.052265431731939316
0	5382	0.012184487655758858
0	5350	-0.005740802735090256
0	5414	0.011496179737150669
0	5396	-0.003236323595046997
0	5370	-0.00467867124825716
0	5374	0.0007204610737971961
0	5486	0.020199107006192207
0	5464	-0.003968588076531887
0	5480	0.0028875304851680994
0	5480	0.0
0	5508	0.005059448536485434
0	5564	0.01012499537318945
0	5510	-0.00976268295198679
0	5568	0.010493938811123371
0	5662	0.0170191191136837
0	5626	-0.006516702007502317
0	5642	0.0028949494007974863
0	5656	0.0025302728172391653
0	5740	0.015161725692451
0	5756	0.002881567692384124
0	5780	0.004313443787395954
0	5780	0.0
0	5810	0.0053696720860898495
0	5782	-0.0050042299553751945
0	5622	-0.02859559841454029
0	5468	-0.027576491236686707
0	5274	-0.03495831415057182
0	5100	-0.03151336684823036
0	5080	-0.0036280083004385233
0	5052	-0.005077430512756109
0	4998	-0.009807719849050045
0	5080	0.014927908778190613
0	5134	0.009846706874668598
0	5078	-0.010228808969259262
0	5226	0.027085723355412483
0	5216	-0.0018317254725843668
0	5290	0.013567857444286346
0	5312	0.004038525279611349
0	5400	0.016169138252735138
0	5352	-0.00882385391741991
0	5376	0.004415390081703663
0	5458	0.01509813778102398
0	5472	0.0025794089306145906
0	5488	0.002948584035038948
0	5468	-0.003687542397528887
0	5490	0.0040611382573843
0	5560	0.012932627461850643
0	5472	-0.01626637578010559
0	5496	0.004441319033503532
0	5530	0.006301353219896555
0	5518	-0.0022271163761615753
0	5532	0.002602520864456892
0	5500	-0.005957774352282286
0	5576	0.0141769889742136
0	5514	-0.011580271646380424
0	5526	0.00224285083822906
0	5526	0.0
0	5558	0.00596940703690052
0	5520	-0.007068540435284376
0	5536	0.002968129701912403
0	5536	0.0
0	5548	0.0022121176589280367
0	5542	-0.0011028870940208435
0	5560	0.003300410695374012
0	5536	-0.004387622233480215
0	5586	0.009123643860220909
0	5558	-0.0050977678038179874
0	5540	-0.0032718151342123747
0	5520	-0.0036303352098912
0	5562	0.007618172559887171
0	5550	-0.0021738605573773384
0	5518	-0.005790877155959606
0	5590	0.013024759478867054
0	5562	-0.005061582662165165
0	5598	0.006504848133772612
0	5648	0.009027443826198578
0	5660	0.002164528239518404
0	5622	-0.00685022072866559
0	5606	-0.002881705993786454
0	5562	-0.007919461466372013
0	5478	-0.015116069465875626
0	5440	-0.0068398634903132915
0	5400	-0.007203832268714905
0	5426	0.004685303661972284
0	5418	-0.0014429320581257343
0	5410	-0.0014437652425840497
0	5686	0.049844685941934586
0	5840	0.027785129845142365
0	6390	0.09906459599733353
0	6566	0.03153594583272934
1	5622	-0.1681131273508072
0	5086	-0.09540535509586334
0	5316	0.04105139151215553
0	5338	0.003931941464543343
0	5398	0.010737678967416286
0	5372	-0.0046568275429308414
0	5364	-0.0014347030082717538
0	5492	0.022981900721788406
0	5406	-0.015445401892066002
0	5450	0.007907695136964321
0	5466	0.0028774563688784838
0	5502	0.006477538496255875
0	5498	-0.0007197955856099725
0	5536	0.006841833237558603
0	5554	0.003241374157369137
0	5550	-0.0007204957073554397
0	5608	0.01045333780348301
0	5690	0.014783475548028946
0	5614	-0.013696161098778248
0	5696	0.014776727184653282
0	5766	0.012604134157299995
0	5740	-0.004673457238823175
0	5796	0.010047846473753452
0	5824	0.005012053065001965
0	5838	0.0025000893510878086
0	5748	-0.01603192277252674
0	5646	-0.018133116886019707
0	5520	-0.022405045107007027
0	5258	-0.04667679965496063
0	5164	-0.016859978437423706
0	5082	-0.0148319648578763
0	5038	-0.007984611205756664
0	5048	0.0018152114935219288
0	5114	0.011999853886663914
0	5078	-0.006554272957146168
0	5110	0.005837356671690941
0	5264	0.028137102723121643
0	5258	-0.001096918829716742
0	5292	0.006224749609827995
0	5324	0.005862667225301266
0	5280	-0.008067374117672443
0	5342	0.011380601674318314
0	5362	0.0036747592967003584
0	5440	0.014343508519232273
0	5436	-0.0007359976880252361
0	5424	-0.002209592144936323
0	5470	0.00847665872424841
0	5484	0.0025820410810410976
0	5504	0.0036933075170964003
0	5504	0.0
0	5562	0.010730540379881859
0	5558	-0.000740969437174499
0	5562	0.0007418030872941017
0	5480	-0.015228991396725178
0	5458	-0.004094546660780907
0	5540	0.01529755536466837
0	5548	0.0014943773858249187
0	5504	-0.008224094286561012
0	5500	-0.0007477194303646684
0	5524	0.004479561932384968
0	5522	-0.00037246261490508914
0	5512	-0.0018572401022538543
0	5528	0.0029628898482769728
0	5550	0.004061938263475895
0	5496	-0.009943530894815922
0	5534	0.006979392375797033
0	5472	-0.011357946321368217
0	5562	0.016466427594423294
0	5518	-0.008035356178879738
0	5506	-0.00218844972550869
0	5508	0.00036433854256756604
0	5552	0.008004366420209408
0	5490	-0.011264534667134285
0	5560	0.01270817220211029
0	5522	-0.00689371582120657
0	5578	0.010153879411518574
0	5568	-0.0018115066923201084
0	5678	0.019914789125323296
0	5682	0.0007233272772282362
0	5598	-0.015173593536019325
0	5596	-0.0003610716375987977
0	5510	-0.015522904694080353
0	5420	-0.01624959334731102
0	5374	-0.008312451653182507
0	5408	0.0061479113064706326
0	5410	0.0003617508918978274
0	5452	0.00760272704064846
0	5462	0.0018112222896888852
0	5580	0.021377844735980034
0	5850	0.048891786485910416
0	5998	0.026747310534119606
0	6632	0.11425207555294037
1	5676	-0.17112784087657928
0	4998	-0.12125764787197113
0	5286	0.05167773365974426
0	5384	0.01760689914226532
0	5366	-0.0032368279062211514
0	5388	0.003958638291805983
0	5342	-0.008285799995064735
0	5422	0.014425331726670265
0	5442	0.0036081543657928705
0	5406	-0.006497256923466921
0	5498	0.016618698835372925
0	5518	0.0036125860642641783
0	5522	0.0007227000314742327
0	5510	-0.002168100094422698
0	5486	-0.004337976686656475
0	5534	0.008680242113769054
0	5538	0.000723981880582869
0	5632	0.017028367146849632
0	5630	-0.00036223133793100715
0	5708	0.014124123379588127
0	5704	-0.0007234493969008327
0	5762	0.010472086258232594
0	5810	0.008646363392472267
0	5774	-0.00646915752440691
0	5742	-0.005737851839512587
0	5804	0.011097852140665054
0	5722	-0.014647913165390491
0	5548	-0.03105590119957924
0	5346	-0.036118295043706894
0	5230	-0.02082211524248123
0	5112	-0.021360302343964577
0	5016	-0.01743721403181553
0	5064	0.008717656135559082
0	5110	0.008365664631128311
0	5196	0.01566617749631405
0	5182	-0.0025529430713504553
0	5234	0.009494248777627945
0	5322	0.016077758744359016
0	5290	-0.0058500198647379875
0	5354	0.011710887774825096
0	5382	0.005125138908624649
0	5392	0.001831703120842576
0	5426	0.006232585292309523
0	5426	0.0
0	5422	-0.0007340526790358126
0	5444	0.0040388708002865314
0	5474	0.005510586313903332
0	5514	0.0073503293097019196
0	5496	-0.003310040570795536
0	5520	0.004417015239596367
0	5520	0.0
0	5562	0.00774745736271143
0	5522	-0.007387615740299225
0	5494	-0.00518051628023386
0	5548	0.010008278302848339
0	5520	-0.0051957047544419765
0	5598	0.014499219134449959
0	5532	-0.012278003618121147
0	5552	0.003720976645126939
0	5522	-0.0055743432603776455
0	5492	-0.005564279854297638
0	5492	0.0
0	5528	0.006641984451562166
0	5534	0.0011038475204259157
0	5516	-0.0033029543701559305
0	5560	0.008058115839958191
0	5552	-0.0014617390697821975
0	5528	-0.0043767401948571205
0	5526	-0.0003642721858341247
0	5512	-0.0025462571065872908
0	5534	0.003997432067990303
0	5540	0.0010892059653997421
0	5478	-0.011245057918131351
0	5510	0.005802076775580645
0	5544	0.006161577999591827
0	5540	-0.0007243577274493873
0	5512	-0.005067567341029644
0	5526	0.0025332029908895493
0	5548	0.0039804596453905106
0	5610	0.011214141733944416
0	5598	-0.0021693019662052393
0	5670	0.013009696267545223
0	5684	0.002528019016608596
0	5616	-0.01226698700338602
0	5592	-0.00432635098695755
0	5466	-0.022707339376211166
0	5396	-0.012619282118976116
0	5388	-0.0014439563965424895
0	5418	0.005419532302767038
0	5454	0.0065086898393929005
0	5414	-0.007234843447804451
0	5542	0.023162389174103737
0	5770	0.04124556854367256
0	5886	0.020954011008143425
0	6598	0.12834225594997406
0	6112	-0.0870385393500328
0	5348	-0.13637661933898926
0	5016	-0.05933515727519989
0	5312	0.053063079714775085
0	5430	0.021180609241127968
0	5356	-0.013289275579154491
0	5406	0.008988818153738976
0	5402	-0.0007196833612397313
0	5428	0.004680074751377106
0	5452	0.004322195425629616
0	5438	-0.0025226741563528776
0	5472	0.006130249705165625
0	5432	-0.007213793229311705
0	5464	0.005774297285825014
0	5496	0.005777216050773859
0	5582	0.015536926686763763
0	5568	-0.00252951099537313
0	5518	-0.009039521217346191
0	5658	0.025336002930998802
0	5608	-0.00904628075659275
0	5686	0.014110837131738663
0	5740	0.009756097570061684
0	5768	0.005048258695751429
0	5832	0.011512585915625095
0	5864	0.005742039065808058
0	5832	-0.0057279919274151325
0	5874	0.007499285973608494
0	5660	-0.03813529014587402
0	5590	-0.01248231716454029
0	5378	-0.037870217114686966
0	5160	-0.03922697901725769
0	5040	-0.021716836839914322
0	5014	-0.004714073613286018
0	5048	0.0061646318063139915
0	5098	0.009080123156309128
0	5072	-0.004731172230094671
0	5158	0.015676267445087433
0	5218	0.01095343567430973
0	5214	-0.000731047592125833
0	5310	0.017568044364452362
0	5256	-0.009890592657029629
0	5262	0.001100177294574678
0	5434	0.031578946858644485
0	5360	-0.013586124405264854
0	5450	0.016534188762307167
0	5444	-0.0011025898857042193
0	5452	0.0014713635900989175
0	5504	0.009570669382810593
0	5502	-0.00036813432234339416
0	5476	-0.004790330771356821
0	5472	-0.0007375719142146409
0	5518	0.008493248373270035
0	5508	-0.0018488845089450479
0	5494	-0.0025925925001502037
0	5528	0.006309460382908583
0	5526	-0.00037191773299127817
0	5528	0.00037262451951391995
0	5520	-0.0014937077648937702
0	5504	-0.0029900209046900272
0	5524	0.00373952928930521
0	5480	-0.00821948517113924
0	5552	0.013423319905996323
0	5534	-0.003345186123624444
0	5498	-0.006668889429420233
0	5578	0.014778688549995422
0	5494	-0.015471892431378365
0	5504	0.0018371321493759751
0	5564	0.010999486781656742
0	5544	-0.0036587596405297518
0	5532	-0.00219084694981575
0	5542	0.0018232426373288035
0	5582	0.007280316669493914
0	5560	-0.00399641552940011
0	5536	-0.004356401972472668
0	5572	0.006527652032673359
0	5532	-0.007247602101415396
0	5510	-0.0039840638637542725
0	5566	0.010137704201042652
0	5588	0.003981180023401976
0	5538	-0.009043444879353046
0	5624	0.01554891373962164
0	5568	-0.01011560671031475
0	5574	0.0010834888089448214
0	5684	0.019856072962284088
0	5620	-0.011539432220160961
0	5626	0.0010812239488586783
0	5596	-0.005402874201536179
0	5572	-0.004320535808801651
0	5362	-0.03779289498925209
0	5418	0.010086697526276112
0	5340	-0.014058275148272514
0	5416	0.013709338381886482
0	5472	0.010109884664416313
0	5446	-0.00469562690705061
0	5696	0.04516439884901047
0	5848	0.027440454810857773
0	6116	0.04827900603413582
0	6688	0.1026659607887268
0	6110	-0.10304990410804749
0	5356	-0.1339777559041977
0	5050	-0.05442967638373375
0	5334	0.050664227455854416
0	5426	0.016436593607068062
0	5370	-0.010012874379754066
0	5344	-0.004653438460081816
0	5386	0.007527331821620464
0	5444	0.010403960943222046
0	5438	-0.0010766966734081507
0	5414	-0.004310086835175753
0	5454	0.0071909683756530285
0	5450	-0.0007194589707069099
0	5512	0.011163259856402874
0	5516	0.00072045240085572
0	5518	0.00036035169614478946
0	5572	0.009739205241203308
0	5654	0.014793433248996735
0	5666	0.002164528239518404
0	5704	0.00685145566239953
0	5774	0.01261109858751297
0	5764	-0.0017971389461308718
0	5844	0.014347374439239502
0	5880	0.006436923984438181
0	5816	-0.011411860585212708
0	5812	-0.0007117860368452966
0	5700	-0.019886834546923637
0	5590	-0.01953125
0	5274	-0.0561937615275383
0	5182	-0.016442272812128067
0	5044	-0.024886688217520714
0	4984	-0.010890082456171513
0	5004	0.003638215595856309
0	4998	-0.0010917693143710494
0	5100	0.018597979098558426
0	5102	0.00036539023858495057
0	5180	0.014273514971137047
0	5230	0.009158850647509098
0	5268	0.0069673634134233
0	5296	0.005139375105500221
0	5306	0.001837087096646428
0	5392	0.015809405595064163
0	5396	0.0007356005953624845
0	5412	0.002943377010524273
0	5446	0.0062585133127868176
0	5476	0.005524590611457825
0	5534	0.010683629661798477
0	5444	-0.016581913456320763
0	5510	0.01217577327042818
0	5560	0.009232928045094013
0	5516	-0.008132184855639935
0	5592	0.014068863354623318
0	5508	-0.015566317364573479
0	5552	0.008170743472874165
0	5510	-0.00781521387398243
0	5546	0.006711493246257305
0	5544	-0.0003734780475497246
0	5544	0.0
0	5546	0.00037394824903458357
0	5480	-0.012319409288465977
0	5536	0.01043348666280508
0	5520	-0.0029719152953475714
0	5556	0.006664691958576441
0	5550	-0.0011070111067965627
0	5484	-0.012135922908782959
0	5552	0.012474317103624344
0	5518	-0.006220043171197176
0	5548	0.005476984195411205
0	5552	0.0007288540946319699
0	5526	-0.004729393869638443
0	5576	0.009082322008907795
0	5498	-0.01414529699832201
0	5548	0.009061692282557487
0	5536	-0.0021728109568357468
0	5494	-0.007599151227623224
0	5540	0.00832047127187252
0	5484	-0.010125362314283848
0	5528	0.00795803964138031
0	5576	0.0086771035566926
0	5526	-0.009035056456923485
0	5602	0.013736098073422909
0	5562	-0.007225781679153442
0	5600	0.006865732837468386
0	5672	0.01300155371427536
0	5612	-0.010826807469129562
0	5638	0.004688739776611328
0	5472	-0.029919253662228584
0	5362	-0.019834591075778008
0	5382	0.00361023866571486
0	5372	-0.0018069023499265313
0	5414	0.007593929767608643
0	5428	0.0025331724900752306
0	5464	0.00651748850941658
0	5662	0.03586610034108162
0	5886	0.04054836928844452
0	6278	0.0707879364490509
0	6730	0.08126767724752426
0	5942	-0.14065735042095184
0	5128	-0.1449585109949112
0	5152	0.004284745082259178
0	5412	0.046521615236997604
0	5336	-0.013611939735710621
0	5316	-0.0035855574533343315
0	5304	-0.002154321176931262
0	5362	0.010427028872072697
0	5396	0.006117234937846661
0	5410	0.002521038753911853
0	5436	0.004684009589254856
0	5410	-0.004686598666012287
0	5474	0.011547760106623173
0	5512	0.006858627777546644
0	5574	0.011196454986929893
0	5498	-0.013723696582019329
0	5618	0.02168230526149273
0	5580	-0.006868297699838877
0	5670	0.01627015694975853
0	5722	0.009398723021149635
0	5672	-0.009023642167448997
0	5764	0.01657259464263916
0	5764	0.0
0	5878	0.020440608263015747
0	5900	0.003933769650757313
0	5844	-0.009985140524804592
0	5834	-0.0017790428828448057
0	5742	-0.0163505170494318
0	5554	-0.03344045579433441
0	5322	-0.04144485294818878
0	5152	-0.030625848099589348
0	5012	-0.02534150704741478
0	5008	-0.0007245502201840281
0	4980	-0.005076264962553978
0	4986	0.0010906181996688247
0	5046	0.010929360054433346
0	5118	0.013136768713593483
0	5158	0.007306469604372978
0	5196	0.006949779111891985
0	5208	0.0021973461844027042
0	5272	0.011733646504580975
0	5302	0.005505664739757776
0	5316	0.0025710086338222027
0	5374	0.010661633685231209
0	5378	0.0007359073497354984
0	5514	0.02505096234381199
0	5474	-0.007367205806076527
0	5468	-0.0011060588294640183
0	5492	0.004427282139658928
0	5516	0.004432132933288813
0	5498	-0.003328320337459445
0	5532	0.006293576676398516
0	5530	-0.0003707410942297429
0	5506	-0.004455335438251495
0	5534	0.005209884140640497
0	5526	-0.0014919248642399907
0	5478	-0.008969279937446117
0	5538	0.011236515827476978
0	5466	-0.013501012697815895
0	5534	0.012757973745465279
0	5486	-0.008993703871965408
0	5518	0.005983321461826563
0	5550	0.005964511074125767
0	5532	-0.003343777498230338
0	5512	-0.003702652407810092
0	5496	-0.0029525377321988344
0	5544	0.008833163417875767
0	5512	-0.005873427726328373
0	5512	0.0
0	5496	-0.0029247249476611614
0	5522	0.0047443523071706295
0	5506	-0.002915168646723032
0	5504	-0.00036394514609128237
0	5532	0.005089428275823593
0	5532	0.0
0	5508	-0.0043541365303099155
0	5518	0.0018142893677577376
0	5562	0.007980749942362309
0	5586	0.004350663628429174
0	5556	-0.0054352423176169395
0	5532	-0.004347143694758415
0	5612	0.014487504959106445
0	5544	-0.012308435514569283
0	5644	0.018099110573530197
0	5654	0.0018084055045619607
0	5660	0.0010842590127140284
0	5650	-0.0018056407570838928
0	5490	-0.02886037714779377
0	5482	-0.0014434353215619922
0	5444	-0.006855658255517483
0	5418	-0.004693253897130489
0	5462	0.007945680059492588
0	5420	-0.0075870705768466
0	5516	0.017355462536215782
0	5700	0.03326784074306488
0	5952	0.0455109141767025
0	6538	0.10554121434688568
0	6236	-0.05406889319419861
0	5472	-0.1361950933933258
0	5020	-0.08059531450271606
0	5260	0.04291538521647453
0	5398	0.024714943021535873
0	5438	0.007168372627347708
0	5362	-0.013625280931591988
0	5394	0.005742794368416071
0	5374	-0.0035922119859606028
0	5450	0.013661365956068039
0	5426	-0.004315874073654413
0	5514	0.015837782993912697
0	5414	-0.018005257472395897
0	5554	0.02522886171936989
0	5462	-0.016576776280999184
0	5524	0.011181379668414593
0	5564	0.007214660290628672
0	5570	0.0010827197693288326
0	5600	0.005416336003690958
0	5638	0.006863170303404331
0	5738	0.018062278628349304
0	5700	-0.006853432860225439
0	5750	0.009005872532725334
0	5778	0.005034039728343487
0	5864	0.015428407117724419
0	5828	-0.006442914716899395
0	5866	0.006784341298043728
0	5790	-0.013540479354560375
0	5714	-0.013533245772123337
0	5540	-0.031027842313051224
0	5308	-0.04161733388900757
0	5172	-0.024532500654459
0	5008	-0.029636770486831665
0	4954	-0.009759154170751572
0	5076	0.022089175879955292
0	5026	-0.009070568718016148
0	5108	0.014912886545062065
0	5106	-0.0003642898809630424
0	5182	0.013867263682186604
0	5260	0.014248831197619438
0	5282	0.0040235561318695545
0	5294	0.0021965953055769205
0	5308	0.0025661392137408257
0	5344	0.00660292012616992
0	5362	0.0033057041000574827
0	5454	0.016906172037124634
0	5470	0.0029414647724479437
0	5420	-0.009197375737130642
0	5464	0.008101141080260277
0	5432	-0.005896661430597305
0	5524	0.016974378377199173
0	5494	-0.005542417988181114
0	5538	0.008139205165207386
0	5528	-0.0018522405298426747
0	5508	-0.0037102079950273037
0	5576	0.012642539106309414
0	5506	-0.01303473487496376
0	5532	0.0048523154109716415
0	5484	-0.008972521871328354
0	5532	0.008985398337244987
0	5542	0.0018720515072345734
0	5526	-0.0029909152071923018
0	5548	0.004103456623852253
0	5522	-0.004833312705159187
0	5510	-0.0022229356691241264
0	5556	0.008498478680849075
0	5532	-0.004419563803821802
0	5556	0.004408091306686401
0	5506	-0.009158291853964329
0	5528	0.004021692555397749
0	5518	-0.0018250617431476712
0	5502	-0.0029159123077988625
0	5544	0.00764461001381278
0	5546	0.00036350858863443136
0	5530	-0.0029045140836387873
0	5510	-0.003626955673098564
0	5488	-0.003988300915807486
0	5526	0.006888134405016899
0	5554	0.005072218831628561
0	5532	-0.003983150236308575
0	5548	0.0028950890991836786
0	5560	0.002171002794057131
0	5570	0.001808449043892324
0	5680	0.0198891032487154
0	5590	-0.016258008778095245
0	5620	0.005416661500930786
0	5552	-0.012274516746401787
0	5414	-0.024903154000639915
0	5390	-0.00433406000956893
0	5446	0.010118531994521618
0	5438	-0.0014462536200881004
0	5472	0.006150431931018829
0	5500	0.00506671192124486
0	5558	0.010498370975255966
0	5818	0.04705144092440605
0	5930	0.020230727270245552
0	6558	0.1131817027926445
0	6256	-0.054094720631837845
0	5458	-0.14234410226345062
0	5036	-0.07529619336128235
0	5312	0.04939037561416626
0	5406	0.016842056065797806
0	5342	-0.011473508551716805
0	5332	-0.0017949023749679327
0	5352	0.003594406880438328
0	5370	0.003238419769331813
0	5398	0.005041774827986956
0	5456	0.010449321009218693
0	5434	-0.0039652022533118725
0	5454	0.003607330145314336
0	5456	0.0003609022533055395
0	5486	0.00541653111577034
0	5574	0.015895571559667587
0	5486	-0.015895187854766846
0	5602	0.02097725123167038
0	5600	-0.000361650570994243
0	5598	-0.00036169419763609767
0	5618	0.003615938825532794
0	5694	0.013723696582019329
0	5788	0.01694304309785366
0	5748	-0.007195021025836468
0	5870	0.021904099732637405
0	5804	-0.011821601539850235
0	5854	0.008939533494412899
0	5782	-0.012850258499383926
0	5680	-0.01820843294262886
0	5572	-0.019308239221572876
0	5346	-0.04064309597015381
0	5202	-0.026038527488708496
0	5068	-0.024267742410302162
0	5028	-0.007242703344672918
0	5076	0.008706166408956051
0	5060	-0.002907857298851013
0	5090	0.005461562890559435
0	5198	0.019690541550517082
0	5216	0.0032848312985152006
0	5248	0.005845175590366125
0	5258	0.00182828726246953
0	5266	0.0014643968315795064
0	5340	0.013559570536017418
0	5398	0.010635176673531532
0	5390	-0.0014674412086606026
0	5462	0.01321472693234682
0	5476	0.0025712919887155294
0	5434	-0.007714348845183849
0	5438	0.0007354563567787409
0	5476	0.006993779446929693
0	5506	0.005525540094822645
0	5486	-0.0036862280685454607
0	5566	0.014763779938220978
0	5552	-0.0025871945545077324
0	5566	0.002590321935713291
0	5526	-0.0074148220010101795
0	5558	0.005942064803093672
0	5560	0.0003720607201103121
0	5558	-0.00037257358781062067
0	5580	0.004101417027413845
0	5520	-0.01118512637913227
0	5502	-0.003351913532242179
0	5572	0.013010990805923939
0	5526	-0.00852346420288086
0	5508	-0.003325041150674224
0	5520	0.0022108133416622877
0	5552	0.005878894589841366
0	5576	0.004396731499582529
0	5544	-0.005848808214068413
0	5520	-0.004377857781946659
0	5524	0.0007284382008947432
0	5532	0.001454527722671628
0	5558	0.004719607066363096
0	5546	-0.0021754105109721422
0	5570	0.004346933681517839
0	5492	-0.014112197794020176
0	5510	0.0032560720574110746
0	5574	0.01157477218657732
0	5586	0.0021684395615011454
0	5578	-0.001444338820874691
0	5594	0.0028869055677205324
0	5626	0.005770756397396326
0	5646	0.0036036900710314512
0	5584	-0.011166074313223362
0	5578	-0.0010803802870213985
0	5494	-0.01512423437088728
0	5388	-0.01908901147544384
0	5444	0.010095061734318733
0	5458	0.00252552586607635
0	5424	-0.006137109827250242
0	5426	0.0003613456501625478
0	5480	0.009761858731508255
0	5682	0.03652142360806465
0	5916	0.042278971523046494
0	6414	0.0897674709558487
0	6498	0.015059520490467548
1	5512	-0.1757429540157318
0	5114	-0.07095570117235184
0	5300	0.03325149416923523
0	5374	0.013248352333903313
0	5340	-0.006092389114201069
0	5350	0.0017938506789505482
0	5396	0.008260703645646572
0	5434	0.0068306829780340195
0	5432	-0.0003597510512918234
0	5440	0.0014401959488168359
0	5414	-0.0046820975840091705
0	5476	0.011171439662575722
0	5428	-0.008653949946165085
0	5474	0.008301250636577606
0	5504	0.005417248699814081
0	5542	0.0068655675277113914
0	5558	0.0028922283090651035
0	5578	0.003617203328758478
0	5638	0.01085200347006321
0	5698	0.01084807887673378
0	5692	-0.0010834757704287767
0	5818	0.022711431607604027
0	5806	-0.002158144023269415
0	5818	0.002153651090338826
0	5826	0.0014323911163955927
0	5750	-0.013575307093560696
0	5788	0.006776759400963783
0	5572	-0.03849627077579498
0	5504	-0.012144013307988644
0	5296	-0.03734872117638588
0	5076	-0.03978971391916275
0	5062	-0.0025387462228536606
0	5058	-0.0007255841046571732
0	5064	0.0010899710468947887
0	5124	0.010920209810137749
0	5172	0.008747630752623081
0	5172	0.0
0	5196	0.004384522791951895
0	5304	0.019758988171815872
0	5346	0.007690053898841143
0	5396	0.009160080924630165
0	5332	-0.011726193130016327
0	5438	0.019438602030277252
0	5404	-0.006234642583876848
0	5462	0.010640119202435017
0	5474	0.002201969502493739
0	5444	-0.005507214460521936
0	5434	-0.0018370195757597685
0	5468	0.006251379381865263
0	5534	0.012147686444222927
0	5492	-0.007738132029771805
0	5492	0.0
0	5550	0.010720622725784779
0	5510	-0.007405213080346584
0	5566	0.010387040674686432
0	5560	-0.0011146891629323363
0	5534	-0.0048360093496739864
0	5466	-0.012667974457144737
0	5514	0.008947989903390408
0	5500	-0.0026096682995557785
0	5534	0.006329742260277271
0	5516	-0.0033415427897125483
0	5508	-0.0014809694839641452
0	5506	-0.00036921713035553694
0	5532	0.004786802921444178
0	5550	0.003305663587525487
0	5570	0.0036644802894443274
0	5482	-0.016084613278508186
0	5536	0.009852935560047626
0	5522	-0.002550865290686488
0	5634	0.0203851331025362
0	5542	-0.016720786690711975
0	5524	-0.0032673014793545008
0	5546	0.003991291858255863
0	5546	0.0
0	5612	0.011957532726228237
0	5554	-0.010499384254217148
0	5538	-0.0028944609221071005
0	5598	0.0108474250882864
0	5664	0.011922826990485191
0	5602	-0.011191470548510551
0	5596	-0.0010823291959241033
0	5556	-0.007211018353700638
0	5462	-0.016945281997323036
0	5392	-0.012622468173503876
0	5416	0.004332234151661396
0	5400	-0.002890660660341382
0	5476	0.01374172791838646
0	5468	-0.0014464105479419231
0	5514	0.008319166488945484
0	5774	0.047017406672239304
0	5886	0.020224394276738167
0	6484	0.10774385929107666
0	6622	0.024719074368476868
1	5616	-0.1790056824684143
0	5182	-0.07718665897846222
0	5380	0.03529118001461029
0	5366	-0.0024981561582535505
0	5378	0.0021427550818771124
0	5338	-0.007149240467697382
0	5420	0.01467202603816986
0	5394	-0.004658051300793886
0	5474	0.014345144852995872
0	5446	-0.005022301338613033
0	5488	0.0075379591435194016
0	5506	0.0032316751312464476
0	5548	0.007545361761003733
0	5556	0.0014372634468600154
0	5576	0.0035927712451666594
0	5618	0.0075458139181137085
0	5656	0.006829046178609133
0	5654	-0.00035930724698118865
0	5712	0.01041629258543253
0	5706	-0.0010765421902760863
0	5776	0.01254135649651289
0	5698	-0.013942679390311241
0	5862	0.029266202822327614
0	5850	-0.002135560614988208
0	5838	-0.0021308332215994596
0	5830	-0.0014174511888995767
0	5732	-0.017331430688500404
0	5604	-0.022642577067017555
0	5392	-0.0375642329454422
0	5248	-0.025680961087346077
0	5092	-0.028050154447555542
0	5062	-0.005411255639046431
0	5118	0.010108303278684616
0	5036	-0.014824814163148403
0	5168	0.023911887779831886
0	5168	0.0
0	5214	0.008352095261216164
0	5226	0.002181527204811573
0	5316	0.016378128901124
0	5288	-0.005100306123495102
0	5344	0.010210406966507435
0	5372	0.005109675694257021
0	5406	0.006209667306393385
0	5436	0.005483859218657017
0	5458	0.00402443902567029
0	5430	-0.005125701893121004
0	5474	0.008063925430178642
0	5488	0.002568650059401989
0	5472	-0.0029385837260633707
0	5544	0.013243084773421288
0	5480	-0.01178333442658186
0	5508	0.005164590664207935
0	5548	0.0073866150341928005
0	5530	-0.0033304139506071806
0	5538	0.0014831110602244735
0	5508	-0.0055719963274896145
0	5508	0.0
0	5510	0.00037272635381668806
0	5502	-0.0014917765511199832
0	5500	-0.0003726893337443471
0	5562	0.011535312980413437
0	5520	-0.007791533134877682
0	5550	0.005549663212150335
0	5522	-0.005165924783796072
0	5512	-0.001839475124143064
0	5496	-0.0029369655530899763
0	5482	-0.002564697526395321
0	5528	0.008413095027208328
0	5548	0.0036511451471596956
0	5598	0.009114994667470455
0	5548	-0.009097856469452381
0	5468	-0.014538581483066082
0	5590	0.02215845137834549
0	5516	-0.013425417244434357
0	5560	0.00797881931066513
0	5618	0.010511054657399654
0	5534	-0.015205638483166695
0	5634	0.01809539832174778
0	5672	0.006870201323181391
0	5586	-0.01552963349968195
0	5602	0.0028885037172585726
0	5504	-0.017679106444120407
0	5460	-0.007937748916447163
0	5402	-0.01046893559396267
0	5464	0.011199557222425938
0	5440	-0.004337244667112827
0	5392	-0.008678044192492962
0	5426	0.00615124823525548
0	5522	0.017377033829689026
0	5750	0.041265472769737244
0	5854	0.018794501200318336
0	6366	0.09236431121826172
0	6572	0.03697410598397255
1	5634	-0.1673346608877182
0	5088	-0.09733892977237701
0	5370	0.05040094256401062
0	5392	0.003934942651540041
0	5368	-0.004294969141483307
0	5372	0.0007165120332501829
0	5380	0.0014345315285027027
0	5414	0.006104713771492243
0	5496	0.014734950847923756
0	5390	-0.0190444253385067
0	5480	0.01618918590247631
0	5476	-0.0007196746882982552
0	5468	-0.0014400748768821359
0	5534	0.01189132034778595
0	5568	0.006125831976532936
0	5516	-0.009372633881866932
0	5630	0.020566975697875023
0	5568	-0.011182588525116444
0	5600	0.005772838369011879
0	5618	0.0032453483436256647
0	5674	0.010087061673402786
0	5764	0.016184914857149124
0	5788	0.004308229777961969
0	5796	0.0014330924022942781
0	5782	-0.0025018765591084957
0	5790	0.0014266183134168386
0	5678	-0.01994088850915432
0	5482	-0.03491147235035896
0	5334	-0.02642008103430271
0	5212	-0.021913280710577965
0	5058	-0.027888108044862747
0	5026	-0.005815150681883097
0	5046	0.003635834902524948
0	5152	0.019307833164930344
0	5100	-0.00948558934032917
0	5248	0.027041511610150337
0	5196	-0.009508253075182438
0	5262	0.012081717140972614
0	5302	0.007329049985855818
0	5360	0.010639728978276253
0	5326	-0.006238226778805256
0	5338	0.0022038028109818697
0	5430	0.01691010780632496
0	5466	0.006618539337068796
0	5436	-0.005517748650163412
0	5476	0.0073629566468298435
0	5438	-0.006996526382863522
0	5460	0.004055398982018232
0	5496	0.006640514824539423
0	5480	-0.002953228307887912
0	5608	0.023645902052521706
0	5550	-0.010718906298279762
0	5518	-0.005921685602515936
0	5508	-0.001853613881394267
0	5490	-0.0033424529246985912
0	5530	0.007441122084856033
0	5490	-0.0074531384743750095
0	5548	0.010819683782756329
0	5494	-0.010069367475807667
0	5502	0.001490275957621634
0	5506	0.0007437986205331981
0	5530	0.004450433421880007
0	5552	0.004066894296556711
0	5452	-0.01842842437326908
0	5522	0.012876167893409729
0	5512	-0.001834705239161849
0	5544	0.005861593410372734
0	5524	-0.0036557279527187347
0	5562	0.006934812758117914
0	5552	-0.0018220689380541444
0	5542	-0.0018199466867372394
0	5546	0.0007270259666256607
0	5528	-0.0032674993854016066
0	5566	0.006893965881317854
0	5504	-0.011241251602768898
0	5524	0.0036247207317501307
0	5576	0.00942154135555029
0	5520	-0.010137826204299927
0	5600	0.014477366581559181
0	5614	0.0025319508276879787
0	5618	0.0007228306494653225
0	5580	-0.0068664769642055035
0	5576	-0.0007226564921438694
0	5502	-0.013364476151764393
0	5480	-0.003973366227000952
0	5370	-0.019868029281497
0	5398	0.005062192678451538
0	5396	-0.000361785787390545
0	5398	0.00036211765836924314
0	5410	0.0021739655639976263
0	5686	0.050029005855321884
0	5728	0.007604838348925114
0	5966	0.04304264485836029
0	6548	0.10499349981546402
0	5994	-0.09928789734840393
0	5290	-0.12581613659858704
0	5062	-0.04080123081803322
0	5362	0.05384063348174095
0	5340	-0.003952143248170614
0	5368	0.00503669586032629
0	5314	-0.009724356234073639
0	5356	0.007573753595352173
0	5400	0.007943481206893921
0	5352	-0.00867229513823986
0	5420	0.012301606126129627
0	5402	-0.003257957985624671
0	5464	0.011230120435357094
0	5494	0.005437606479972601
0	5476	-0.0032630765344947577
0	5540	0.01161075010895729
0	5530	-0.0018149919342249632
0	5584	0.009806176647543907
0	5546	-0.006900475826114416
0	5630	0.015256453305482864
0	5634	0.0007259352714754641
0	5698	0.01160415355116129
0	5712	0.002533386228606105
0	5754	0.0075857918709516525
0	5760	0.0010813538683578372
0	5772	0.002158014802262187
0	5676	-0.01722673512995243
0	5646	-0.00538367684930563
0	5508	-0.024777067825198174
0	5350	-0.02844591811299324
0	5192	-0.028651908040046692
0	5088	-0.018951358273625374
0	5092	0.0007297938573174179
0	5094	0.0003648303681984544
0	5072	-0.004019684158265591
0	5174	0.01866718754172325
0	5156	-0.003298112889751792
0	5250	0.017240114510059357
0	5312	0.011378512717783451
0	5330	0.0033052186481654644
0	5362	0.00587673531845212
0	5324	-0.006981102284044027
0	5404	0.014704081229865551
0	5468	0.011767590418457985
0	5438	-0.005516937002539635
0	5472	0.006253985688090324
0	5506	0.006256593856960535
0	5518	0.0022085346281528473
0	5490	-0.005155335180461407
0	5514	0.004420378245413303
0	5516	0.0003686273703351617
0	5526	0.0018444738816469908
0	5538	0.0022157118655741215
0	5538	0.0
0	5506	-0.005922781769186258
0	5510	0.0007415097206830978
0	5492	-0.003342204727232456
0	5494	0.00037177946069277823
0	5464	-0.005581948906183243
0	5556	0.017122650519013405
0	5500	-0.010409180074930191
0	5564	0.011873546987771988
0	5554	-0.00184979650657624
0	5518	-0.006640351377427578
0	5506	-0.0022076950408518314
0	5554	0.008807339705526829
0	5502	-0.009519160725176334
0	5528	0.004749552346765995
0	5554	0.0047415257431566715
0	5524	-0.005462955217808485
0	5548	0.004365223925560713
0	5530	-0.0032702297903597355
0	5484	-0.008346840739250183
0	5548	0.011607380583882332
0	5548	0.0
0	5508	-0.007246288936585188
0	5520	0.0021734144538640976
0	5478	-0.007606307044625282
0	5518	0.007245851680636406
0	5466	-0.00941801443696022
0	5562	0.017392143607139587
0	5522	-0.0072447145357728004
0	5496	-0.004709178116172552
0	5548	0.009420745074748993
0	5558	0.001811572234146297
0	5608	0.009055018424987793
0	5646	0.006877744570374489
0	5588	-0.010487866587936878
0	5652	0.011566264554858208
0	5496	-0.028160877525806427
0	5464	-0.005778676364570856
0	5380	-0.015172314830124378
0	5386	0.001084938645362854
0	5374	-0.002172076841816306
0	5434	0.010869828052818775
0	5434	0.0
0	5600	0.030108097940683365
0	5824	0.04060373827815056
0	6134	0.05609235167503357
0	6548	0.07464929670095444
0	6036	-0.09175517410039902
0	5386	-0.1161474734544754
0	5048	-0.0604485385119915
0	5356	0.055226825177669525
0	5382	0.0046673608012497425
0	5428	0.008265848271548748
0	5360	-0.012224938720464706
0	5414	0.009717356413602829
0	5424	0.0018002017168328166
0	5410	-0.002521704649552703
0	5488	0.014054223895072937
0	5434	-0.009734172374010086
0	5468	0.006132166367024183
0	5522	0.009740962646901608
0	5542	0.0036083280574530363
0	5520	-0.003969542682170868
0	5538	0.0032495276536792517
0	5606	0.01228397712111473
0	5544	-0.011198882944881916
0	5632	0.015905531123280525
0	5636	0.0007223867578431964
0	5700	0.011546233668923378
0	5722	0.003961394540965557
0	5768	0.008266245014965534
0	5844	0.013625118881464005
0	5774	-0.012518777512013912
0	5790	0.002855647122487426
0	5724	-0.011766243726015091
0	5690	-0.006065002642571926
0	5452	-0.04256739839911461
0	5288	-0.02952507697045803
0	5190	-0.017722588032484055
0	5160	-0.005431699566543102
0	5138	-0.003980555571615696
0	5082	-0.010145662352442741
0	5142	0.010890082456171513
0	5188	0.008363534696400166
0	5212	0.004368136636912823
0	5298	0.01567169651389122
0	5268	-0.005471058189868927
0	5326	0.010586517862975597
0	5330	0.0007308250060304999
0	5402	0.0131631875410676
0	5420	0.003292120760306716
0	5406	-0.0025621314998716116
0	5486	0.014652909711003304
0	5432	-0.009892767295241356
0	5468	0.006599450018256903
0	5446	-0.004036400932818651
0	5552	0.01945977658033371
0	5518	-0.006244872231036425
0	5516	-0.0003676110354717821
0	5554	0.006992492359131575
0	5478	-0.013999410904943943
0	5564	0.01586969569325447
0	5564	0.0
0	5510	-0.009994817897677422
0	5586	0.014091121964156628
0	5528	-0.01076293084770441
0	5528	0.0
0	5552	0.00445599714294076
0	5564	0.0022243643179535866
0	5452	-0.020712867379188538
0	5492	0.007384160999208689
0	5528	0.00663129985332489
0	5510	-0.0033065949101001024
0	5524	0.00256601395085454
0	5440	-0.015364542603492737
0	5548	0.019726987928152084
0	5536	-0.0021885561291128397
0	5588	0.009468317963182926
0	5546	-0.007635345682501793
0	5546	0.0
0	5562	0.0029023713432252407
0	5546	-0.0028998814523220062
0	5580	0.006157040596008301
0	5540	-0.007239469792693853
0	5560	0.0036173779517412186
0	5558	-0.00036153726978227496
0	5512	-0.008309748955070972
0	5554	0.007588989567011595
0	5518	-0.006503438577055931
0	5510	-0.001445191097445786
0	5516	0.001084180548787117
0	5518	0.0003613108419813216
0	5550	0.005782575346529484
0	5520	-0.005421621724963188
0	5592	0.013011107221245766
0	5582	-0.001807033084332943
0	5626	0.007948359474539757
0	5658	0.005777216050773859
0	5590	-0.01226875837892294
0	5594	0.0007215788355097175
0	5534	-0.01081444788724184
0	5462	-0.012974063865840435
0	5412	-0.009013339877128601
0	5432	0.0036074600648134947
0	5438	0.0010828369995579123
0	5410	-0.0050533004105091095
0	5436	0.004696249030530453
0	5484	0.008675221353769302
0	5736	0.04557346552610397
0	5892	0.028179869055747986
0	6420	0.0951797291636467
0	6432	0.002152080414816737
1	5432	-0.17839516699314117
0	5076	-0.06356461346149445
0	5402	0.058369241654872894
0	5354	-0.008602355606853962
0	5336	-0.0032298194710165262
0	5430	0.016884610056877136
0	5460	0.005392708815634251
0	5346	-0.020499419420957565
0	5374	0.00503989914432168
0	5442	0.01225019246339798
0	5492	0.009011606685817242
0	5480	-0.002163539407774806
0	5508	0.00504947267472744
0	5518	0.0018042941810563207
0	5544	0.0046929712407290936
0	5514	-0.00541763985529542
0	5602	0.015905531123280525
0	5612	0.0018073159735649824
0	5626	0.0025299680419266224
0	5614	-0.0021673429291695356
0	5732	0.02129272185266018
0	5760	0.0050428034737706184
0	5752	-0.0014379696222022176
0	5796	0.007893981412053108
0	5774	-0.00393790053203702
0	5864	0.01607717014849186
0	5708	-0.027804182842373848
0	5622	-0.015330497175455093
0	5468	-0.027496399357914925
0	5254	-0.03842700645327568
0	5132	-0.022062545642256737
0	5084	-0.008696071803569794
0	5048	-0.006521739065647125
0	5104	0.010166659951210022
0	5114	0.0018182258354499936
0	5068	-0.008375107310712337
0	5162	0.017152033746242523
0	5218	0.010236786678433418
0	5228	0.0018294244073331356
0	5370	0.0260009765625
0	5338	-0.005861951503902674
0	5402	0.011734937317669392
0	5348	-0.009906074963510036
0	5374	0.0047742631286382675
0	5412	0.0069839246571063995
0	5472	0.01103617437183857
0	5494	0.0040476396679878235
0	5428	-0.012150966562330723
0	5512	0.015482349321246147
0	5486	-0.004795514512807131
0	5550	0.011813639663159847
0	5550	0.0
0	5446	-0.019243579357862473
0	5556	0.020392272621393204
0	5524	-0.005941108334809542
0	5582	0.010784945450723171
0	5518	-0.011921467259526253
0	5574	0.010443604551255703
0	5502	-0.01343149971216917
0	5538	0.006714330520480871
0	5540	0.00037236089701764286
0	5554	0.0025999429635703564
0	5538	-0.002962743630632758
0	5578	0.007384524215012789
0	5528	-0.009203809313476086
0	5556	0.005141073372215033
0	5558	0.00036612601252272725
0	5562	0.0007304868777282536
0	5536	-0.004738242365419865
0	5558	0.004001794848591089
0	5590	0.005814164876937866
0	5562	-0.005079641472548246
0	5554	-0.001449923263862729
0	5562	0.0014481210382655263
0	5532	-0.005424301140010357
0	5518	-0.00252951099537313
0	5522	0.0007225172012113035
0	5578	0.01011353638023138
0	5478	-0.01804359257221222
0	5508	0.005414185114204884
0	5504	-0.0007217958336696029
0	5502	-0.0003609977720770985
0	5484	-0.00324991880916059
0	5514	0.005415292922407389
0	5598	0.015166652388870716
0	5554	-0.007940900512039661
0	5672	0.021299639716744423
0	5586	-0.015509095042943954
0	5598	0.0021639037877321243
0	5658	0.010813278146088123
0	5498	-0.028814638033509254
0	5472	-0.0046835592947900295
0	5400	-0.012976245954632759
0	5388	-0.0021645021624863148
0	5442	0.009751399978995323
0	5452	0.0018067500786855817
0	5426	-0.00470049399882555
0	5586	0.02894914709031582
0	5786	0.03618119657039642
0	5958	0.031068988144397736
0	6576	0.11136339604854584
0	6494	-0.014689373783767223
1	5472	-0.18206650018692017
0	5082	-0.069511279463768
0	5332	0.04468594491481781
0	5386	0.00966368056833744
0	5396	0.0017909806920215487
0	5372	-0.004301588982343674
0	5420	0.008613779209554195
0	5370	-0.008975801058113575
0	5434	0.011498521082103252
0	5464	0.005392191931605339
0	5500	0.006472103763371706
0	5522	0.003954795654863119
0	5524	0.0003595096350181848
0	5526	0.0003596691240090877
0	5472	-0.009712696075439453
0	5582	0.019808873534202576
0	5590	0.0014406800037249923
0	5612	0.003962060436606407
0	5680	0.012249751016497612
0	5614	-0.011876484379172325
0	5718	0.01869853399693966
0	5748	0.0053835478611290455
0	5794	0.008237035945057869
0	5852	0.010364051908254623
0	5800	-0.00926982332020998
0	5848	0.008537785150110722
0	5746	-0.01811465620994568
0	5620	-0.022382225841283798
0	5392	-0.04058239236474037
0	5224	-0.03011436201632023
0	5172	-0.009392385371029377
0	4996	-0.03184713423252106
0	5024	0.0050692190416157246
0	4964	-0.010882840491831303
0	5096	0.024003490805625916
0	5078	-0.0032791662961244583
0	5220	0.025915246456861496
0	5178	-0.007674410007894039
0	5222	0.008049271069467068
0	5290	0.012455885298550129
0	5294	0.0007334784022532403
0	5364	0.012852054089307785
0	5336	-0.00514579750597477
0	5376	0.007359615061432123
0	5410	0.006261433009058237
0	5454	0.008106116205453873
0	5492	0.007006244268268347
0	5402	-0.016603736206889153
0	5498	0.017733553424477577
0	5506	0.001479454105719924
0	5486	-0.0037010994274169207
0	5566	0.014825613237917423
0	5490	-0.014100185595452785
0	5522	0.005948102567344904
0	5440	-0.015273242257535458
0	5492	0.009707166813313961
0	5552	0.01122544426470995
0	5550	-0.000374634750187397
0	5546	-0.000749597093090415
0	5456	-0.01684972457587719
0	5486	0.005608454812318087
0	5550	0.011941338889300823
0	5494	-0.010412792675197124
0	5534	0.007416105363518
0	5534	0.0
0	5566	0.00589615385979414
0	5566	0.0
0	5540	-0.004766210913658142
0	5536	-0.0007316448609344661
0	5542	0.0010953702731058002
0	5524	-0.003281078999862075
0	5586	0.011285723187029362
0	5502	-0.015269765630364418
0	5532	0.005448007956147194
0	5470	-0.011248594149947166
0	5566	0.01741086132824421
0	5568	0.00036248081596568227
0	5546	-0.0039854589849710464
0	5598	0.009411991573870182
0	5598	0.0
0	5656	0.010485844686627388
0	5562	-0.01697690784931183
0	5662	0.018060974776744843
0	5678	0.002886766567826271
0	5650	-0.005047106184065342
0	5654	0.0007201065891422331
0	5506	-0.026618067175149918
0	5406	-0.01799014024436474
0	5418	0.0021606828086078167
0	5396	-0.0039642974734306335
0	5452	0.010094576515257359
0	5436	-0.0028847542125731707
0	5462	0.004690939094871283
0	5584	0.022015567868947983
0	5806	0.04004906862974167
0	6010	0.03674175217747688
0	6678	0.11999136954545975
0	6168	-0.09100425988435745
0	5332	-0.14862045645713806
0	5030	-0.05375323444604874
0	5336	0.05463114753365517
0	5374	0.006791859399527311
0	5344	-0.005368775222450495
0	5390	0.008239887654781342
0	5452	0.011115361005067825
0	5414	-0.006813373416662216
0	5408	-0.0010767739731818438
0	5404	-0.0007185370777733624
0	5448	0.007910633459687233
0	5410	-0.0068380581215023994
0	5516	0.019096117466688156
0	5522	0.0010818217415362597
0	5522	0.0
0	5610	0.015883902087807655
0	5546	-0.011556657962501049
0	5606	0.010841152630746365
0	5576	-0.0054221441969275475
0	5674	0.01770487055182457
0	5770	0.01731560006737709
0	5790	0.003599798306822777
0	5774	-0.0028730472549796104
0	5870	0.017205122858285904
0	5866	-0.0007150262244977057
0	5880	0.0024965822231024504
0	5726	-0.027414167299866676
0	5612	-0.020303241908550262
0	5402	-0.03748928755521774
0	5222	-0.03237953409552574
0	5152	-0.01266387663781643
0	5012	-0.025355275720357895
0	5046	0.0061583793722093105
0	5060	0.0025402510073035955
0	5102	0.007635253481566906
0	5110	0.001456469763070345
0	5152	0.00765948137268424
0	5180	0.005115650128573179
0	5288	0.019759953022003174
0	5332	0.008056246675550938
0	5276	-0.010257912799715996
0	5344	0.01246913243085146
0	5422	0.01430860161781311
0	5436	0.0025696875527501106
0	5444	0.0014691659016534686
0	5450	0.0011024008272215724
0	5470	0.00367827364243567
0	5440	-0.005519982427358627
0	5512	0.013261459767818451
0	5514	0.0003685186675284058
0	5504	-0.0018444060115143657
0	5556	0.009606621228158474
0	5472	-0.015540782362222672
0	5480	0.0014828360872343183
0	5488	0.0014864178374409676
0	5542	0.010056864470243454
0	5518	-0.004479115828871727
0	5498	-0.0037374328821897507
0	5532	0.0063581508584320545
0	5500	-0.005979296751320362
0	5492	-0.0014922402333468199
0	5504	0.002233638660982251
0	5524	0.0037114014849066734
0	5544	0.003700460074469447
0	5584	0.007378893904387951
0	5586	0.00036785443080589175
0	5530	-0.0102699538692832
0	5506	-0.004391261376440525
0	5472	-0.006208609323948622
0	5494	0.0040128412656486034
0	5542	0.008746675215661526
0	5482	-0.010915706865489483
0	5534	0.009452369064092636
0	5564	0.00544959120452404
0	5530	-0.006171420216560364
0	5576	0.008345226757228374
0	5564	-0.0021753578912466764
0	5648	0.015218861401081085
0	5588	-0.01085697766393423
0	5648	0.01085200347006321
0	5682	0.006144504528492689
0	5610	-0.012997953221201897
0	5686	0.013715606182813644
0	5550	-0.024512160569429398
0	5436	-0.020538318902254105
0	5466	0.00540650961920619
0	5386	-0.014423943124711514
0	5518	0.023818403482437134
0	5382	-0.02453722059726715
0	5466	0.015169026330113411
0	5710	0.04407142847776413
0	5940	0.04148828610777855
0	6326	0.06944610923528671
0	6740	0.07412712275981903
1	5798	-0.16747063398361206
0	5098	-0.12428977340459824
0	5348	0.04451778158545494
0	5430	0.014617624692618847
0	5372	-0.010343967005610466
0	5354	-0.003212106181308627
0	5442	0.01571671850979328
0	5422	-0.0035741091705858707
0	5382	-0.007150774355977774
0	5436	0.009662296622991562
0	5432	-0.000716272508725524
0	5444	0.00215007527731359
0	5506	0.011117487214505672
0	5494	-0.002152517903596163
0	5508	0.002513585379347205
0	5604	0.01724427007138729
0	5588	-0.0028748023323714733
0	5586	-0.00035955270868726075
0	5624	0.006832484621554613
0	5680	0.01007266715168953
0	5720	0.007189158815890551
0	5742	0.003947321325540543
0	5808	0.01182244811207056
0	5820	0.0021441334392875433
0	5828	0.0014268558006733656
0	5796	-0.005692329257726669
0	5720	-0.013492880389094353
0	5626	-0.016687575727701187
0	5432	-0.03450442850589752
0	5228	-0.036476340144872665
0	5132	-0.017321433871984482
0	5008	-0.022463496774435043
0	5044	0.006525206379592419
0	4998	-0.008353106677532196
0	5064	0.012016313150525093
0	5108	0.008025877177715302
0	5216	0.019729390740394592
0	5224	0.0014634503750130534
0	5246	0.004029353614896536
0	5358	0.02053011767566204
0	5282	-0.013937793672084808
0	5366	0.01541906874626875
0	5350	-0.00293836765922606
0	5386	0.0066176471300423145
0	5486	0.018394526094198227
0	5450	-0.006622923072427511
0	5490	0.0073657589964568615
0	5466	-0.0044221156276762486
0	5566	0.018439071252942085
0	5550	-0.0029513034969568253
0	5550	0.0
0	5572	0.004065541550517082
0	5482	-0.016649195924401283
0	5514	0.005931638181209564
0	5522	0.0014857185306027532
0	5492	-0.005582018755376339
0	5560	0.012676476500928402
0	5490	-0.013062301091849804
0	5506	0.002988196676596999
0	5444	-0.011573930270969868
0	5556	0.020879680290818214
0	5502	-0.010040533728897572
0	5548	0.008526940830051899
0	5538	-0.001847927807830274
0	5552	0.002578522078692913
0	5532	-0.0036726000253111124
0	5568	0.006593567784875631
0	5522	-0.008407047018408775
0	5534	0.0021891684737056494
0	5562	0.005099129397422075
0	5558	-0.0007275461102835834
0	5528	-0.005447480361908674
0	5548	0.003628096077591181
0	5534	-0.002536630257964134
0	5548	0.0025343645829707384
0	5568	0.003619167022407055
0	5554	-0.002531614853069186
0	5676	0.022052709013223648
0	5602	-0.013359329663217068
0	5694	0.016605298966169357
0	5664	-0.005410084035247564
0	5606	-0.010452333837747574
0	5470	-0.0245039165019989
0	5426	-0.00792830903083086
0	5492	0.011898753233253956
0	5440	-0.0093764653429389
0	5446	0.0010822380427271128
0	5460	0.0025269542820751667
0	5592	0.0238298699259758
0	5800	0.037530675530433655
0	5976	0.0316888727247715
0	6602	0.11242815852165222
0	6090	-0.0913524478673935
0	5350	-0.13160859048366547
0	5064	-0.050921693444252014
0	5246	0.032498836517333984
0	5404	0.028261389583349228
0	5378	-0.004655160009860992
0	5406	0.005017561372369528
0	5374	-0.005738743580877781
0	5402	0.005027050152420998
0	5460	0.010422906838357449
0	5426	-0.006112469360232353
0	5478	0.00935532245784998
0	5470	-0.0014397638151422143
0	5498	0.005041532684117556
0	5554	0.010087303817272186
0	5496	-0.010447564534842968
0	5598	0.018393181264400482
0	5604	0.0010819778544828296
0	5570	-0.006134526804089546
0	5656	0.015525520779192448
0	5658	0.00036095004179514945
0	5742	0.01514277420938015
0	5794	0.009356332011520863
0	5776	-0.003232874907553196
0	5812	0.006452769506722689
0	5832	0.0035770495887845755
0	5812	-0.003569134045392275
0	5740	-0.012832090258598328
0	5610	-0.023177312687039375
0	5340	-0.04824242740869522
0	5276	-0.011521844193339348
0	5114	-0.029307829216122627
0	5048	-0.011957244016230106
0	5096	0.008697018027305603
0	5082	-0.002538930391892791
0	5094	0.002180470386520028
0	5154	0.010921137407422066
0	5208	0.009844074957072735
0	5230	0.004014598671346903
0	5302	0.01315244659781456
0	5276	-0.0047540683299303055
0	5298	0.004026354290544987
0	5410	0.02052033692598343
0	5384	-0.0047653960064053535
0	5424	0.007336487527936697
0	5492	0.012481950223445892
0	5460	-0.005874002352356911
0	5556	0.017636900767683983
0	5544	-0.0022052607964724302
0	5502	-0.007719642482697964
0	5500	-0.0003679491928778589
0	5578	0.014363935217261314
0	5570	-0.0014747087843716145
0	5546	-0.004430223722010851
0	5558	0.0022182513494044542
0	5568	0.0018514404073357582
0	5600	0.005934278015047312
0	5518	-0.015226541087031364
0	5554	0.006694021634757519
0	5498	-0.010416536591947079
0	5578	0.014866204001009464
0	5574	-0.0007419223547913134
0	5494	-0.014796365052461624
0	5514	0.0036889477632939816
0	5514	0.0
0	5502	-0.002201861934736371
0	5552	0.009151587262749672
0	5506	-0.00839906558394432
0	5568	0.011299984529614449
0	5538	-0.0054565295577049255
0	5530	-0.0014529955806210637
0	5512	-0.003264220431447029
0	5560	0.008693342097103596
0	5550	-0.0018094743136316538
0	5568	0.003253796137869358
0	5624	0.010114145465195179
0	5640	0.0028874611016362906
0	5642	0.0003605422389227897
0	5698	0.010089968331158161
0	5488	-0.03780241683125496
0	5464	-0.004320639185607433
0	5442	-0.0039614420384168625
0	5476	0.006127230357378721
0	5458	-0.003245660336688161
0	5480	0.003969017881900072
0	5570	0.01624451018869877
0	5742	0.031044689938426018
0	5862	0.0216405987739563
0	6472	0.10977935791015625
0	6376	-0.017182130366563797
0	5578	-0.14208221435546875
0	4970	-0.108253113925457
0	5282	0.05575078725814819
0	5424	0.02540583722293377
0	5382	-0.007518438156694174
0	5390	0.0014332123100757599
0	5360	-0.005378143396228552
0	5418	0.010409686714410782
0	5456	0.006823732517659664
0	5382	-0.013297234661877155
0	5510	0.023022133857011795
0	5484	-0.0046769315376877785
0	5512	0.005037541966885328
0	5490	-0.003959208261221647
0	5516	0.004680749028921127
0	5518	0.00036017000093124807
0	5518	0.0
0	5614	0.017311852425336838
0	5614	0.0
0	5676	0.011188104748725891
0	5640	-0.0064889807254076
0	5718	0.014044606126844883
0	5776	0.010426154360175133
0	5842	0.011842955835163593
0	5852	0.0017902752151712775
0	5822	-0.00535892928019166
0	5822	0.0
0	5684	-0.024602437391877174
0	5516	-0.029982510954141617
0	5348	-0.030154000967741013
0	5176	-0.031063005328178406
0	5072	-0.01882784627377987
0	5080	0.0014474049676209688
0	5094	0.0025360481813549995
0	5048	-0.00834936648607254
0	5096	0.008730024099349976
0	5158	0.011296415701508522
0	5168	0.0018242404330521822
0	5268	0.018270179629325867
0	5282	0.002560757100582123
0	5288	0.0010981368832290173
0	5392	0.01906018704175949
0	5374	-0.0033007333986461163
0	5366	-0.0014682310866191983
0	5358	-0.0014693457633256912
0	5498	0.025738447904586792
0	5470	-0.00514832092449069
0	5468	-0.0003678453795146197
0	5486	0.0033135744743049145
0	5510	0.004421572666615248
0	5536	0.004794924985617399
0	5548	0.0022144580725580454
0	5512	-0.006650328170508146
0	5486	-0.004810835234820843
0	5472	-0.002596150152385235
0	5474	0.0003717518411576748
0	5494	0.0037255510687828064
0	5466	-0.005226416047662497
0	5464	-0.00037382246227934957
0	5486	0.004113379865884781
0	5500	0.0026153558865189552
0	5492	-0.0014914799248799682
0	5486	-0.0011156979016959667
0	5508	0.004080622922629118
0	5512	0.0007400372414849699
0	5604	0.016972290351986885
0	5506	-0.018022878095507622
0	5504	-0.0003670308506116271
0	5544	0.007325559854507446
0	5560	0.0029252953827381134
0	5584	0.004380521364510059
0	5584	0.0
0	5624	0.007279256358742714
0	5626	0.0003634117019828409
0	5638	0.0021770417224615812
0	5640	0.00036222697235643864
0	5596	-0.007962167263031006
0	5524	-0.013019106350839138
0	5394	-0.023498788475990295
0	5422	0.005064084660261869
0	5390	-0.005790597293525934
0	5442	0.00941801443696022
0	5398	-0.007974192500114441
0	5500	0.018498368561267853
0	5784	0.051500897854566574
0	5956	0.03113197349011898
0	6500	0.09817840903997421
0	6586	0.015427484177052975
1	5504	-0.19280801713466644
0	5152	-0.06271007657051086
0	5436	0.050696179270744324
0	5316	-0.02142908237874508
0	5420	0.018591348081827164
0	5378	-0.007510998286306858
0	5416	0.006800935138016939
0	5464	0.008595578372478485
0	5452	-0.0021506918128579855
0	5406	-0.008246979676187038
0	5428	0.003946518991142511
0	5512	0.015078986063599586
0	5516	0.0007182531990110874
0	5522	0.0010778185678645968
0	5582	0.010782187804579735
0	5516	-0.011863390915095806
0	5560	0.007914143614470959
0	5628	0.012236671522259712
0	5698	0.012597480788826942
0	5688	-0.0017985395388677716
0	5734	0.008265156298875809
0	5758	0.004303491674363613
0	5794	0.0064422995783388615
0	5760	-0.006069766823202372
0	5768	0.0014254829147830606
0	5758	-0.0017779463669285178
0	5698	-0.010651390999555588
0	5482	-0.038364533334970474
0	5396	-0.015317754819989204
0	5248	-0.026534710079431534
0	5164	-0.01518163736909628
0	5068	-0.01738605462014675
0	5098	0.005435898434370756
0	5172	0.01343597937375307
0	5190	0.003271062159910798
0	5218	0.005095417611300945
0	5276	0.010565048083662987
0	5288	0.0021877316758036613
0	5352	0.01168039534240961
0	5348	-0.000730469124391675
0	5336	-0.0021921813022345304
0	5402	0.01206375565379858
0	5422	0.003658135188743472
0	5450	0.00512432586401701
0	5414	-0.006591313984245062
0	5520	0.019427677616477013
0	5470	-0.009163775481283665
0	5518	0.008802063763141632
0	5564	0.008440986275672913
0	5522	-0.007713309954851866
0	5514	-0.0014706962974742055
0	5564	0.009204261004924774
0	5558	-0.0011058277450501919
0	5512	-0.008490322157740593
0	5508	-0.0007394170970655978
0	5526	0.00333271618001163
0	5560	0.006304156966507435
0	5508	-0.009649883024394512
0	5530	0.004081986378878355
0	5534	0.0007415647269226611
0	5534	0.0
0	5496	-0.00701642083004117
0	5610	0.02099395915865898
0	5562	-0.00881186593323946
0	5584	0.004029156174510717
0	5490	-0.01717417687177658
0	5532	0.0076608783565461636
0	5492	-0.007284736260771751
0	5518	0.004729221574962139
0	5550	0.005814728327095509
0	5510	-0.007259528152644634
0	5526	0.0029007578268647194
0	5632	0.019203132018446922
0	5558	-0.0133889801800251
0	5650	0.016634924337267876
0	5568	-0.014805720187723637
0	5684	0.020938627421855927
0	5578	-0.01910896971821785
0	5508	-0.012614582665264606
0	5460	-0.008652910590171814
0	5406	-0.009738151915371418
0	5420	0.002526346128433943
0	5390	-0.005418292246758938
0	5452	0.011209140531718731
0	5456	0.0007234319346025586
0	5578	0.0220715943723917
0	5824	0.04449106380343437
0	6008	0.03322499245405197
0	6590	0.1047767698764801
0	6136	-0.08121645450592041
0	5432	-0.12548869848251343
0	5010	-0.07526753842830658
0	5272	0.046865496784448624
0	5418	0.02616862580180168
0	5370	-0.008610792458057404
0	5388	0.0032331845723092556
0	5394	0.0010783866746351123
0	5388	-0.0010792789980769157
0	5404	0.0028798733837902546
0	5418	0.002521613845601678
0	5490	0.012978585436940193
0	5452	-0.00685063237324357
0	5522	0.012625199742615223
0	5530	0.0014438348589465022
0	5480	-0.009025488048791885
0	5572	0.016623901203274727
0	5560	-0.0021682828664779663
0	5580	0.0036165055353194475
0	5608	0.005063047166913748
0	5654	0.008312852121889591
0	5718	0.011552207171916962
0	5770	0.00936858169734478
0	5754	-0.0028765941970050335
0	5804	0.008969790302217007
0	5836	0.005728607065975666
0	5770	-0.011788520961999893
0	5820	0.008920500054955482
0	5686	-0.023907510563731194
0	5570	-0.020735761150717735
0	5338	-0.04172511771321297
0	5188	-0.027107127010822296
0	5142	-0.008325088769197464
0	5140	-0.0003616723697632551
0	5072	-0.012306652963161469
0	5116	0.007979785092175007
0	5118	0.0003632752923294902
0	5194	0.013827064074575901
0	5248	0.009836424142122269
0	5292	0.008021682500839233
0	5326	0.006202795077115297
0	5304	-0.004015819635242224
0	5354	0.00913720391690731
0	5376	0.004022771492600441
0	5406	0.005490483250468969
0	5424	0.0032967838924378157
0	5490	0.012092341668903828
0	5530	0.007332364097237587
0	5486	-0.00806707888841629
0	5514	0.005136546678841114
0	5492	-0.0040381792932748795
0	5458	-0.00624701427295804
0	5510	0.009569495916366577
0	5502	-0.001474581891670823
0	5536	0.00627669133245945
0	5544	0.0014793082373216748
0	5520	-0.004445926286280155
0	5540	0.0037106669042259455
0	5510	-0.005575655493885279
0	5544	0.00632597366347909
0	5498	-0.008560051210224628
0	5464	-0.0063207210041582584
0	5580	0.02152799256145954
0	5508	-0.013326095417141914
0	5506	-0.00036933075170964
0	5512	0.0011050401953980327
0	5530	0.003307080827653408
0	5514	-0.002932228846475482
0	5568	0.00987696461379528
0	5542	-0.004746315535157919
0	5566	0.004374559503048658
0	5554	-0.002184094861149788
0	5560	0.0010903936345130205
0	5564	0.0007260230486281216
0	5556	-0.0014503963757306337
0	5592	0.006520872935652733
0	5640	0.008685686625540257
0	5594	-0.008316258899867535
0	5656	0.011204549111425877
0	5614	-0.007582413498312235
0	5636	0.003969351761043072
0	5578	-0.01045559998601675
0	5522	-0.010087788105010986
0	5478	-0.007925547659397125
0	5426	-0.009367906488478184
0	5352	-0.013340063393115997
0	5432	0.014438348822295666
0	5494	0.011195646598935127
0	5464	-0.005418748594820499
0	5604	0.025294501334428787
0	5854	0.045152436941862106
0	6004	0.027033522725105286
0	6648	0.11568862944841385
0	6154	-0.0881785973906517
0	5354	-0.142252579331398
0	5006	-0.0619356669485569
0	5260	0.04534202814102173
0	5358	0.01752232015132904
0	5376	0.0032213805243372917
0	5376	0.0
0	5330	-0.008250035345554352
0	5390	0.010776120238006115
0	5398	0.0014382281806319952
0	5438	0.007198128383606672
0	5458	0.003601786680519581
0	5466	0.001441562664695084
0	5508	0.00757393566891551
0	5498	-0.0018047501798719168
0	5490	-0.0014446343993768096
0	5476	-0.002530638827010989
0	5544	0.01230190321803093
0	5574	0.005430323071777821
0	5576	0.0003620302595663816
0	5588	0.0021714740432798862
0	5670	0.014828567393124104
0	5752	0.014806789346039295
0	5824	0.012969857081770897
0	5780	-0.007907411083579063
0	5856	0.013634895905852318
0	5782	-0.013245033100247383
0	5840	0.010370229370892048
0	5688	-0.027179419994354248
0	5534	-0.02758900821208954
0	5328	-0.03715192899107933
0	5196	-0.023924890905618668
0	5068	-0.0232220608741045
0	5028	-0.00725417397916317
0	5080	0.009443670511245728
0	5046	-0.006185116712003946
0	5108	0.011301357299089432
0	5128	0.003651545150205493
0	5166	0.006946475710719824
0	5276	0.020135702565312386
0	5228	-0.00879303365945816
0	5296	0.012472792528569698
0	5280	-0.002937684301286936
0	5350	0.012867016717791557
0	5338	-0.0022079115733504295
0	5360	0.004051814321428537
0	5474	0.021012533456087112
0	5446	-0.005161036737263203
0	5516	0.012910365127027035
0	5450	-0.01217697188258171
0	5494	0.008124276995658875
0	5548	0.00997647549957037
0	5594	0.008504869416356087
0	5530	-0.011844394728541374
0	5506	-0.004449718166142702
0	5496	-0.0018571941182017326
0	5516	0.0037226846907287836
0	5494	-0.004101722501218319
0	5494	0.0
0	5516	0.0041155340149998665
0	5532	0.0029934518970549107
0	5498	-0.0063530029729008675
0	5546	0.008952106349170208
0	5560	0.002603295026347041
0	5580	0.003706769784912467
0	5542	-0.0070211743004620075
0	5622	0.014736402779817581
0	5538	-0.015424542129039764
0	5510	-0.005128643475472927
0	5518	0.0014622554881498218
0	5542	0.004380308091640472
0	5570	0.005100615788251162
0	5552	-0.003273520851507783
0	5556	0.0007262515719048679
0	5524	-0.00580277806147933
0	5568	0.00796985998749733
0	5518	-0.009045299142599106
0	5512	-0.0010851479601114988
0	5518	0.0010847164085134864
0	5524	0.00108470325358212
0	5550	0.004698285833001137
0	5626	0.013728819787502289
0	5578	-0.008666763082146645
0	5642	0.011556796729564667
0	5622	-0.0036090658977627754
0	5644	0.0039672041311860085
0	5628	-0.0028826752677559853
0	5456	-0.03096792846918106
0	5416	-0.007203486282378435
0	5400	-0.0028827444184571505
0	5396	-0.0007211885531432927
0	5426	0.005413338541984558
0	5388	-0.0068598659709095955
0	5498	0.019876403734087944
0	5782	0.05133643373847008
0	5988	0.0371917225420475
0	6616	0.1130770891904831
0	6592	-0.0042957887053489685
1	5420	-0.20846673846244812
0	5222	-0.03523758798837662
0	5308	0.015332137234508991
0	5376	0.01213996671140194
0	5290	-0.015371233224868774
0	5360	0.012531029060482979
0	5372	0.0021506918128579855
0	5374	0.00035877444315701723
0	5466	0.016522789373993874
0	5430	-0.006467452738434076
0	5406	-0.004313753452152014
0	5454	0.00863330066204071
0	5490	0.006477694027125835
0	5502	0.0021600087638944387
0	5516	0.0025218864902853966
0	5554	0.006847669370472431
0	5608	0.009736045263707638
0	5628	0.0036062460858374834
0	5610	-0.0032459336798638105
0	5660	0.00901745818555355
0	5764	0.01873333752155304
0	5744	-0.0035950529854744673
0	5872	0.02296101488173008
0	5818	-0.009659186005592346
0	5828	0.0017845670226961374
0	5786	-0.007475615479052067
0	5752	-0.006041365675628185
0	5620	-0.023458881303668022
0	5456	-0.0292095597833395
0	5258	-0.03550975024700165
0	5092	-0.030010122805833817
0	5020	-0.013042218051850796
0	5048	0.005078167654573917
0	5012	-0.0065393513068556786
0	5056	0.008010194636881351
0	5104	0.00875082053244114
0	5162	0.010590383782982826
0	5138	-0.004387835972011089
0	5232	0.017210444435477257
0	5318	0.01576824299991131
0	5284	-0.006238226778805256
0	5344	0.011016855016350746
0	5374	0.005512139294296503
0	5424	0.009193429723381996
0	5456	0.005886608734726906
0	5480	0.004416581708937883
0	5524	0.008100743405520916
0	5526	0.00036840554093942046
0	5532	0.0011059092357754707
0	5494	-0.007007450331002474
0	5502	0.0014767595566809177
0	5556	0.009984222240746021
0	5492	-0.011846879497170448
0	5556	0.011874721385538578
0	5508	-0.008920496329665184
0	5508	0.0
0	5514	0.0011192081728950143
0	5540	0.0048570893704891205
0	5596	0.010466637089848518
0	5514	-0.015312791801989079
0	5498	-0.002983108162879944
0	5502	0.0007438999600708485
0	5554	0.009641890414059162
0	5536	-0.003327172016724944
0	5496	-0.007369920611381531
0	5514	0.0033075264655053616
0	5516	0.00036658236058428884
0	5564	0.008778988383710384
0	5554	-0.001824218430556357
0	5540	-0.0025489148683845997
0	5544	0.0007272815564647317
0	5540	-0.0007261373102664948
0	5540	0.0
0	5582	0.007607777137309313
0	5512	-0.012667544186115265
0	5534	0.003979883622378111
0	5590	0.010127314366400242
0	5600	0.001807729946449399
0	5608	0.0014455392956733704
0	5626	0.0032509753946214914
0	5678	0.009384248405694962
0	5644	-0.006129365414381027
0	5628	-0.0028828829526901245
0	5540	-0.015842914581298828
0	5452	-0.01584443636238575
0	5390	-0.01116687897592783
0	5410	0.003604772500693798
0	5346	-0.011542484164237976
0	5438	0.016611695289611816
0	5446	0.0014458702644333243
0	5702	0.04628681018948555
0	5958	0.04622996971011162
0	6316	0.0644727498292923
0	6804	0.0874844640493393
1	5870	-0.1661803424358368
0	5030	-0.14912477135658264
0	5318	0.051275353878736496
0	5414	0.017111893743276596
0	5346	-0.012131736613810062
0	5350	0.0007145153358578682
0	5356	0.0010729869827628136
0	5370	0.002506445161998272
0	5340	-0.005376408342272043
0	5454	0.02045479044318199
0	5430	-0.004309570882469416
0	5430	0.0
0	5524	0.016897965222597122
0	5534	0.001798367011360824
0	5554	0.0035981577821075916
0	5570	0.002879458712413907
0	5548	-0.003960586152970791
0	5666	0.02125972881913185
0	5690	0.004323441535234451
0	5722	0.005762442946434021
0	5716	-0.0010792789980769157
0	5770	0.00969815906137228
0	5854	0.015051784925162792
0	5870	0.0028594236355274916
0	5822	-0.008551577106118202
0	5792	-0.005332575179636478
0	5804	0.0021286660339683294
0	5600	-0.0361655093729496
0	5478	-0.021674247458577156
0	5240	-0.04249342158436775
0	5142	-0.01766168884932995
0	5032	-0.019911423325538635
0	5032	0.0
0	5022	-0.0018132366240024567
0	5028	0.001090525765903294
0	5068	0.007284205406904221
0	5224	0.028457114472985268
0	5126	-0.01789126545190811
0	5284	0.028887996450066566
0	5288	0.0007315913680940866
0	5310	0.004027828574180603
0	5368	0.010626602917909622
0	5334	-0.006231748033314943
0	5410	0.013945977203547955
0	5430	0.003672779770568013
0	5444	0.002572898752987385
0	5454	0.0018392044585198164
0	5536	0.015090173110365868
0	5498	-0.00699858833104372
0	5562	0.011801005341112614
0	5534	-0.005168022587895393
0	5562	0.005173815414309502
0	5484	-0.014431260526180267
0	5508	0.004450543317943811
0	5514	0.0011151310754939914
0	5494	-0.00372420996427536
0	5514	0.003731111064553261
0	5470	-0.00822327472269535
0	5542	0.013467173092067242
0	5492	-0.009348473511636257
0	5484	-0.0014934103237465024
0	5576	0.017137747257947922
0	5532	-0.008168721571564674
0	5528	-0.000740320305339992
0	5542	0.0025830576196312904
0	5478	-0.01177105214446783
0	5518	0.007338461931794882
0	5546	0.005127704236656427
0	5556	0.0018266397528350353
0	5486	-0.012765336781740189
0	5504	0.003278569085523486
0	5520	0.0029108552262187004
0	5508	-0.0021811306942254305
0	5548	0.007262779865413904
0	5534	-0.0025398514699190855
0	5570	0.006526941433548927
0	5630	0.010869959369301796
0	5556	-0.013392049819231033
0	5612	0.01013330090790987
0	5644	0.005786478985100985
0	5664	0.0036147625651210546
0	5576	-0.015892507508397102
0	5694	0.021308613941073418
0	5500	-0.03498857840895653
0	5406	-0.01695404388010502
0	5390	-0.0028876697178930044
0	5374	-0.002889477415010333
0	5486	0.02024340257048607
0	5438	-0.008674907498061657
0	5496	0.010488751344382763
0	5638	0.025678738951683044
0	5892	0.04588979110121727
0	6082	0.034261807799339294
0	6620	0.09669534116983414
0	6070	-0.09820961207151413
0	5354	-0.12745051085948944
0	5032	-0.05735933408141136
0	5300	0.04787823185324669
0	5388	0.015744274482131004
0	5396	0.0014327331446111202
0	5310	-0.015410160645842552
0	5388	0.013992872089147568
0	5422	0.006104275118559599
0	5416	-0.0010777798015624285
0	5460	0.007909970358014107
0	5454	-0.0010791107779368758
0	5478	0.0043194470927119255
0	5452	-0.004683671984821558
0	5518	0.011896750889718533
0	5560	0.007574937772005796
0	5606	0.008300552144646645
0	5568	-0.006859370972961187
0	5636	0.012275254353880882
0	5688	0.009390236809849739
0	5702	0.0025252830237150192
0	5710	0.0014404552057385445
0	5854	0.02587849088013172
0	5824	-0.0053758942522108555
0	5854	0.00536506250500679
0	5822	-0.005708577111363411
0	5770	-0.009258490055799484
0	5730	-0.007116340100765228
0	5526	-0.036328233778476715
0	5312	-0.03823522478342056
0	5182	-0.023409362882375717
0	5048	-0.02425895445048809
0	4994	-0.00979408249258995
0	5070	0.01378743164241314
0	5104	0.006176651921123266
0	5084	-0.0036395841743797064
0	5112	0.0051050796173512936
0	5208	0.017524218186736107
0	5272	0.011695621535182
0	5270	-0.00036582243046723306
0	5334	0.011716747656464577
0	5390	0.010260042734444141
0	5358	-0.005865174345672131
0	5446	0.01614106446504593
0	5428	-0.00330170220695436
0	5436	0.0014682310866191983
0	5500	0.01175476610660553
0	5502	0.0003675749758258462
0	5548	0.008457643911242485
0	5536	-0.0022075327578932047
0	5580	0.00810183770954609
0	5514	-0.012161863967776299
0	5496	-0.003320869756862521
0	5504	0.0014791986905038357
0	5456	-0.008892731741070747
0	5556	0.01857217215001583
0	5554	-0.00037205612170509994
0	5542	-0.002235330641269684
0	5562	0.0037299050018191338
0	5508	-0.010068491101264954
0	5576	0.01266341470181942
0	5518	-0.010774794965982437
0	5564	0.008520727045834064
0	5580	0.002953337272629142
0	5480	-0.01840061880648136
0	5518	0.006976146716624498
0	5554	0.00659147510305047
0	5526	-0.0051129101775586605
0	5564	0.006925544701516628
0	5480	-0.015281989239156246
0	5534	0.009811640717089176
0	5524	-0.001814772142097354
0	5538	0.002538623521104455
0	5570	0.0057962615974247456
0	5580	0.001809976645745337
0	5568	-0.0021699818316847086
0	5572	0.000722752243746072
0	5586	0.0025285363662987947
0	5656	0.012636290863156319
0	5594	-0.011184874922037125
0	5630	0.006492179352790117
0	5490	-0.02523977868258953
0	5376	-0.02055535465478897
0	5416	0.007217611186206341
0	5378	-0.006860361434519291
0	5400	0.003973653540015221
0	5476	0.013740072026848793
0	5494	0.0032557579688727856
0	5746	0.04559380188584328
0	5916	0.030723631381988525
0	6558	0.11574241518974304
0	6584	0.004659887868911028
1	5584	-0.17809227108955383
0	5084	-0.08903556317090988
0	5322	0.04250607267022133
0	5410	0.01573132909834385
0	5342	-0.012163854204118252
0	5370	0.005014985334128141
0	5402	0.005736754275858402
0	5350	-0.00933125987648964
0	5430	0.014366955496370792
0	5438	0.001437590573914349
0	5484	0.008270406164228916
0	5486	0.00035969927557744086
0	5484	-0.0003598805342335254
0	5494	0.0018004392040893435
0	5510	0.0028819828294217587
0	5592	0.014775662682950497
0	5530	-0.011171439662575722
0	5638	0.019474664703011513
0	5634	-0.0007210932089947164
0	5714	0.01442151702940464
0	5742	0.005040746182203293
0	5748	0.0010777927236631513
0	5840	0.01649336703121662
0	5782	-0.01036936417222023
0	5826	0.007848546840250492
0	5784	-0.007476236671209335
0	5732	-0.009240392595529556
0	5530	-0.035898346453905106
0	5324	-0.03669310733675957
0	5194	-0.023326754570007324
0	5152	-0.0075995177030563354
0	5038	-0.020681148394942284
0	5058	0.0036292809527367353
0	5076	0.003271577414125204
0	5096	0.003642456606030464
0	5170	0.013497245498001575
0	5182	0.002191407373175025
0	5280	0.017920490354299545
0	5278	-0.00036588043440133333
0	5326	0.008789276704192162
0	5286	-0.0073294080793857574
0	5360	0.013575823046267033
0	5358	-0.0003671970625873655
0	5412	0.009921971708536148
0	5476	0.011765282601118088
0	5402	-0.013606442138552666
0	5498	0.017672181129455566
0	5534	0.006628368981182575
0	5468	-0.012159772217273712
0	5526	0.010696765035390854
0	5524	-0.0003692807804327458
0	5498	-0.00480709969997406
0	5498	0.0
0	5504	0.0011133928783237934
0	5502	-0.0003717702638823539
0	5542	0.0074503617361187935
0	5520	-0.004103865474462509
0	5558	0.007097850553691387
0	5510	-0.008964143693447113
0	5506	-0.0007461479981429875
0	5534	0.0052129230462014675
0	5598	0.011887072585523129
0	5534	-0.01184600219130516
0	5534	0.0
0	5498	-0.006625198293477297
0	5514	0.002937288722023368
0	5540	0.004763068165630102
0	5516	-0.0043870871886610985
0	5516	0.0
0	5484	-0.005832604132592678
0	5488	0.0007283763261511922
0	5540	0.009457296691834927
0	5578	0.006903568282723427
0	5654	0.013788765296339989
0	5584	-0.012681619264185429
0	5586	0.0003620958304964006
0	5652	0.01193590834736824
0	5590	-0.01120212022215128
0	5592	0.000361236889148131
0	5466	-0.02274094708263874
0	5448	-0.0032498796936124563
0	5348	-0.018063148483633995
0	5436	0.015909940004348755
0	5332	-0.018809683620929718
0	5416	0.015208207070827484
0	5442	0.004709746688604355
0	5522	0.014500283636152744
0	5814	0.05292539671063423
0	5960	0.02642183192074299
0	6616	0.11839587986469269
0	5980	-0.1140248104929924
0	5300	-0.12158924341201782
0	5066	-0.04191545397043228
0	5302	0.04239216074347496
0	5414	0.02014629915356636
0	5360	-0.009718289598822594
0	5398	0.006845120340585709
0	5372	-0.004687500186264515
0	5342	-0.005413338541984558
0	5434	0.01661829650402069
0	5470	0.006504770368337631
0	5406	-0.01156529039144516
0	5496	0.016276825219392776
0	5502	0.00108565844129771
0	5546	0.007968801073729992
0	5528	-0.0032607121393084526
0	5600	0.013047417625784874
0	5618	0.003262879326939583
0	5576	-0.007612097542732954
0	5606	0.005437737796455622
0	5650	0.007968608289957047
0	5724	0.013385428115725517
0	5816	0.016603700816631317
0	5778	-0.006842408329248428
0	5824	0.008260801434516907
0	5798	-0.004657772835344076
0	5836	0.00679307384416461
0	5704	-0.023552922531962395
0	5528	-0.03142445534467697
0	5270	-0.04618413746356964
0	5152	-0.0212940014898777
0	5092	-0.010881655849516392
0	5068	-0.004358142614364624
0	5074	0.0010895223822444677
0	5092	0.003273084294050932
0	5080	-0.002186323283240199
0	5226	0.02664557658135891
0	5262	0.006577024236321449
0	5300	0.006947068497538567
0	5288	-0.0021943727042526007
0	5336	0.0087853092700243
0	5366	0.005495310295373201
0	5420	0.009893975220620632
0	5446	0.004765978083014488
0	5470	0.00440087029710412
0	5410	-0.01100728940218687
0	5478	0.012483935803174973
0	5508	0.005511734168976545
0	5536	0.005147752817720175
0	5486	-0.009194670245051384
0	5490	0.0007361150346696377
0	5540	0.009210477583110332
0	5510	-0.005532537121325731
0	5546	0.006651557050645351
0	5530	-0.0029604777228087187
0	5490	-0.007414638996124268
0	5514	0.004457266069948673
0	5464	-0.00930451788008213
0	5508	0.008200183510780334
0	5514	0.0011183457681909204
0	5548	0.006327700335532427
0	5470	-0.014480914920568466
0	5464	-0.0011113169603049755
0	5524	0.011086064390838146
0	5462	-0.011423937976360321
0	5510	0.008824286982417107
0	5556	0.008434383198618889
0	5592	0.006587534677237272
0	5572	-0.003652389859780669
0	5566	-0.0010939057683572173
0	5536	-0.0054603032767772675
0	5548	0.0021814743522554636
0	5594	0.008353106677532196
0	5544	-0.009069911204278469
0	5522	-0.003988397307693958
0	5484	-0.006886885967105627
0	5514	0.005434585735201836
0	5558	0.007968993857502937
0	5586	0.00506964698433876
0	5576	-0.0018100420711562037
0	5646	0.012663418427109718
0	5646	0.0
0	5582	-0.01155971921980381
0	5612	0.005416270345449448
0	5510	-0.01840800791978836
0	5444	-0.011912497691810131
0	5420	-0.004333016462624073
0	5400	-0.003612890839576721
0	5424	0.00433714035898447
0	5478	0.00976350624114275
0	5456	-0.0039785876870155334
0	5772	0.05717870220541954
0	5824	0.009392045438289642
0	6470	0.1164257600903511
0	6580	0.019712790846824646
1	5494	-0.1933278739452362
0	5036	-0.08154012262821198
0	5364	0.0585763119161129
0	5340	-0.00429189670830965
0	5332	-0.0014326133532449603
0	5334	0.0003586543316487223
0	5346	0.0021545274648815393
0	5424	0.014021379873156548
0	5460	0.00647800462320447
0	5452	-0.0014402822125703096
0	5458	0.0010806657373905182
0	5500	0.00756584107875824
0	5518	0.0032427760306745768
0	5522	0.0007207899470813572
0	5558	0.0064896042458713055
0	5566	0.0014422903768718243
0	5634	0.01226536463946104
0	5604	-0.005411581136286259
0	5656	0.009378832764923573
0	5704	0.008655094541609287
0	5728	0.004322506953030825
0	5768	0.007191916462033987
0	5830	0.011124269105494022
0	5812	-0.003221341874450445
0	5892	0.014284013770520687
0	5744	-0.026360472664237022
0	5644	-0.017780726775527
0	5450	-0.03452080115675926
0	5344	-0.018903816118836403
0	5172	-0.030880821868777275
0	5084	-0.015933753922581673
0	5058	-0.004719378426671028
0	5042	-0.0029038465581834316
0	5170	0.023276112973690033
0	5170	0.0
0	5178	0.0014576904941350222
0	5304	0.022980401292443275
0	5320	0.0029188913758844137
0	5296	-0.00438110763207078
0	5348	0.009501881897449493
0	5386	0.006948084570467472
0	5368	-0.003292642766609788
0	5432	0.011716604232788086
0	5408	-0.004396033473312855
0	5458	0.009164783172309399
0	5458	0.0
0	5486	0.005138808861374855
0	5448	-0.006980418227612972
0	5588	0.02574191801249981
0	5522	-0.01214053574949503
0	5492	-0.005524590611457825
0	5528	0.006639126688241959
0	5516	-0.002216312102973461
0	5524	0.001480403239838779
0	5570	0.008527467027306557
0	5520	-0.009287465363740921
0	5600	0.014880583621561527
0	5526	-0.013768295757472515
0	5522	-0.0007438815664499998
0	5550	0.005201431456953287
0	5494	-0.010378570295870304
0	5552	0.010722076520323753
0	5546	-0.0011058141244575381
0	5558	0.002204801654443145
0	5518	-0.00733191566541791
0	5534	0.002926543587818742
0	5544	0.0018251283327117562
0	5566	0.004009427968412638
0	5542	-0.0043673948384821415
0	5552	0.0018170365365222096
0	5552	0.0
0	5490	-0.01124043669551611
0	5528	0.006884224247187376
0	5534	0.0010863529751077294
0	5482	-0.00940790493041277
0	5540	0.010491913184523582
0	5482	-0.010486729443073273
0	5516	0.006147541105747223
0	5500	-0.0028917754534631968
0	5574	0.013381554745137691
0	5560	-0.00253085233271122
0	5624	0.011564871296286583
0	5592	-0.005779094062745571
0	5628	0.0064985076896846294
0	5550	-0.014071294106543064
0	5414	-0.02453751675784588
0	5408	-0.001083228038623929
0	5462	0.009760329499840736
0	5360	-0.018443290144205093
0	5438	0.014117476530373096
0	5436	-0.00036223133793100715
0	5542	0.019204987213015556
0	5806	0.04783417284488678
0	5976	0.03075401484966278
0	6570	0.10718797147274017
0	6576	0.001075898646377027
1	5576	-0.17820651829242706
0	4996	-0.10334014892578125
0	5322	0.058281589299440384
0	5406	0.015037055127322674
0	5354	-0.009316770359873772
0	5350	-0.0007175231003202498
0	5426	0.01364436000585556
0	5402	-0.004311377182602882
0	5440	0.006831747479736805
0	5474	0.006114155054092407
0	5430	-0.007915567606687546
0	5438	0.001439642976038158
0	5502	0.011522534303367138
0	5444	-0.010442172177135944
0	5518	0.013333172537386417
0	5558	0.007208939176052809
0	5554	-0.0007211798219941556
0	5694	0.025247059762477875
0	5694	0.0
0	5668	-0.004682828206568956
0	5696	0.0050353677943348885
0	5734	0.006821935530751944
0	5848	0.020432548597455025
0	5822	-0.004646508023142815
0	5860	0.00677555100992322
0	5864	0.0007114231120795012
0	5788	-0.013491284102201462
0	5672	-0.020594153553247452
0	5432	-0.042685385793447495
0	5248	-0.03294774889945984
0	5058	-0.03429396450519562
0	5052	-0.0010863529751077294
0	4982	-0.012669837102293968
0	5030	0.008705745451152325
0	5088	0.01054340973496437
0	5186	0.01784348674118519
0	5228	0.007654828019440174
0	5206	-0.004014500882476568
0	5264	0.010596316307783127
0	5348	0.015362855978310108
0	5368	0.00366063485853374
0	5372	0.0007324040052480996
0	5360	-0.0021980975288897753
0	5376	0.0029333399143069983
0	5392	0.0029345592483878136
0	5426	0.0062407455407083035
0	5498	0.01322637964040041
0	5434	-0.011760815046727657
0	5526	0.0169331394135952
0	5510	-0.0029479321092367172
0	5506	-0.0007376988651230931
0	5490	-0.0029542462434619665
0	5550	0.011095085181295872
0	5554	0.0007410334656015038
0	5530	-0.004453571513295174
0	5546	0.002975120674818754
0	5502	-0.008197738789021969
0	5484	-0.0033595880959182978
0	5546	0.01158546470105648
0	5510	-0.0067222705110907555
0	5524	0.002609960036352277
0	5508	-0.002974198665469885
0	5600	0.017053458839654922
0	5538	-0.011448831297457218
0	5538	0.0
0	5548	0.0018357605440542102
0	5574	0.004762428347021341
0	5562	-0.0021934101823717356
0	5586	0.004377325531095266
0	5542	-0.008009416982531548
0	5524	-0.0032727273646742105
0	5546	0.00399622181430459
0	5516	-0.005443658214062452
0	5484	-0.005801094695925713
0	5586	0.018478931859135628
0	5560	-0.004704803694039583
0	5570	0.0018080784939229488
0	5534	-0.006506259087473154
0	5538	0.0007224824512377381
0	5570	0.00577944191172719
0	5616	0.00830494798719883
0	5630	0.002525920746847987
0	5578	-0.009374097920954227
0	5622	0.007930595427751541
0	5630	0.0014413376338779926
0	5658	0.005041653756052256
0	5620	-0.006837647873908281
0	5532	-0.015823354944586754
0	5404	-0.023009167984128
0	5444	0.007196488324552774
0	5350	-0.016918443143367767
0	5420	0.01261200662702322
0	5484	0.011537074111402035
0	5496	0.0021647103130817413
0	5706	0.03789199888706207
0	5880	0.03136453777551651
0	6204	0.05828665941953659
0	6690	0.08710093796253204
0	5988	-0.12497032433748245
0	5234	-0.1339079588651657
0	4998	-0.041989393532276154
0	5398	0.07139118015766144
0	5348	-0.008931761607527733
0	5342	-0.0010728846536949277
0	5344	0.00035793115966953337
0	5354	0.00179224309977144
0	5394	0.007177805993705988
0	5404	0.0017963426653295755
0	5450	0.008269613608717918
0	5392	-0.010432405397295952
0	5478	0.015485265292227268
0	5460	-0.0032437886111438274
0	5560	0.01803947053849697
0	5554	-0.001082485425285995
0	5536	-0.003248784691095352
0	5560	0.004334164317697287
0	5586	0.0046981158666312695
0	5678	0.016627507284283638
0	5690	0.002166899386793375
0	5732	0.007571114692837
0	5816	0.015116069465875626
0	5814	-0.0003589031985029578
0	5882	0.012174016796052456
0	5866	-0.002857687184587121
0	5864	-0.0003564257640391588
0	5774	-0.016024120151996613
0	5568	-0.03670051693916321
0	5410	-0.028255661949515343
0	5244	-0.029914582148194313
0	5078	-0.030048873275518417
0	5006	-0.01304552610963583
0	4968	-0.006884806323796511
0	5066	0.017801782116293907
0	5078	0.002183538628742099
0	5118	0.007290135137736797
0	5182	0.011680252850055695
0	5240	0.010596316307783127
0	5294	0.00987479742616415
0	5340	0.008417508564889431
0	5320	-0.0036622434854507446
0	5334	0.002564697526395321
0	5352	0.00330037041567266
0	5352	0.0
0	5398	0.008450601249933243
0	5464	0.012136368080973625
0	5468	0.0007358622970059514
0	5526	0.010676025412976742
0	5464	-0.01141650602221489
0	5514	0.009218968451023102
0	5512	-0.0003691580786835402
0	5462	-0.00924146082252264
0	5518	0.010373059660196304
0	5480	-0.007051750086247921
0	5520	0.007441398687660694
0	5546	0.004847310017794371
0	5496	-0.00934020709246397
0	5546	0.009356404654681683
0	5482	-0.011977840214967728
0	5560	0.014591439627110958
0	5548	-0.0022404221817851067
0	5550	0.00037231468013487756
0	5536	-0.002597434911876917
0	5534	-0.0003697632346302271
0	5492	-0.007742696441709995
0	5524	0.005884227808564901
0	5526	0.00036685133818536997
0	5492	-0.006223382893949747
0	5478	-0.0025586355477571487
0	5510	0.005841761361807585
0	5564	0.009847784414887428
0	5512	-0.009469007141888142
0	5516	0.0007275990792550147
0	5542	0.004724695812910795
0	5500	-0.007623426616191864
0	5564	0.011609485372900963
0	5532	-0.005801234859973192
0	5560	0.005074118264019489
0	5504	-0.01014615222811699
0	5546	0.007607777137309313
0	5556	0.0018110255477949977
0	5542	-0.0025347622577100992
0	5590	0.008686420507729053
0	5608	0.0032559935934841633
0	5648	0.007229960989207029
0	5634	-0.0025285363662987947
0	5594	-0.007220563944429159
0	5610	0.0028865234926342964
0	5486	-0.02236195094883442
0	5440	-0.008295362815260887
0	5390	-0.009023208171129227
0	5420	0.005419075023382902
0	5440	0.0036155469715595245
0	5406	-0.0061499872244894505
0	5466	0.010861300863325596
0	5646	0.03258901461958885
0	5894	0.044867388904094696
0	6238	0.06209760159254074
0	6752	0.09237073361873627
1	5760	-0.17692171037197113
0	4996	-0.13605603575706482
0	5272	0.04931741952896118
0	5378	0.01896786317229271
0	5320	-0.01038719154894352
0	5340	0.003586543258279562
0	5350	0.001794988289475441
0	5340	-0.0017972897039726377
0	5440	0.017993595451116562
0	5444	0.0007202621782198548
0	5456	0.002161565003916621
0	5440	-0.0028836450073868036
0	5480	0.007214140146970749
0	5498	0.003247573273256421
0	5514	0.002888330025598407
0	5522	0.0014449823647737503
0	5556	0.006145836785435677
0	5590	0.006148726679384708
0	5656	0.011936051771044731
0	5710	0.00976315326988697
0	5762	0.009388879872858524
0	5758	-0.0007208245806396008
0	5784	0.004675025586038828
0	5804	0.0035883449018001556
0	5910	0.01897691749036312
0	5870	-0.007139627356082201
0	5806	-0.011396011337637901
0	5764	-0.007471536751836538
0	5524	-0.042727433145046234
0	5342	-0.03253951296210289
0	5152	-0.034257687628269196
0	4986	-0.03004017472267151
0	5062	0.01375416200608015
0	5018	-0.007973036728799343
0	5082	0.011622416786849499
0	5024	-0.01054801233112812
0	5214	0.03462015092372894
0	5180	-0.0062003061175346375
0	5258	0.014238080009818077
0	5264	0.0010964510729536414
0	5328	0.011708316393196583
0	5380	0.009520438499748707
0	5364	-0.002930438844487071
0	5406	0.007697852794080973
0	5430	0.004401247017085552
0	5440	0.0018347949953749776
0	5492	0.009545721113681793
0	5448	-0.008080312982201576
0	5498	0.009190162643790245
0	5474	-0.004415552597492933
0	5466	-0.0014739840989932418
0	5538	0.01329001784324646
0	5454	-0.015526036731898785
0	5568	0.021113978698849678
0	5530	-0.007048262283205986
0	5534	0.000743669515941292
0	5532	-0.0003726106369867921
0	5498	-0.006345178000628948
0	5490	-0.0014954576035961509
0	5544	0.010096477344632149
0	5512	-0.005975574720650911
0	5538	0.004844299051910639
0	5582	0.008170035667717457
0	5520	-0.011475389823317528
0	5554	0.006273525767028332
0	5550	-0.0007359253941103816
0	5550	0.0
0	5544	-0.001098083215765655
0	5508	-0.006573901511728764
0	5544	0.006563913077116013
0	5558	0.0025482962373644114
0	5538	-0.0036353501491248608
0	5564	0.004721435252577066
0	5528	-0.0065294671803712845
0	5570	0.007612097542732954
0	5528	-0.00760566396638751
0	5538	0.0018099111039191484
0	5574	0.006513872183859348
0	5582	0.0014464278938248754
0	5544	-0.006867056246846914
0	5554	0.001806358341127634
0	5616	0.011193491518497467
0	5560	-0.010105506516993046
0	5682	0.022001538425683975
0	5686	0.0007208679453469813
0	5608	-0.014043763279914856
0	5644	0.006478860042989254
0	5504	-0.02517864853143692
0	5440	-0.011509825475513935
0	5372	-0.012232856824994087
0	5428	0.010084517300128937
0	5450	0.003963773604482412
0	5464	0.0025237351655960083
0	5466	0.00036078941775485873
0	5564	0.017684422433376312
0	5842	0.05016300082206726
0	6142	0.054037827998399734
0	6680	0.09656459838151932
0	6174	-0.09020787477493286
0	5468	-0.12536698579788208
0	5054	-0.0735485702753067
0	5230	0.03136062249541283
0	5456	0.040343694388866425
0	5352	-0.018577178940176964
0	5368	0.002861025743186474
0	5342	-0.0046547711826860905
0	5380	0.0068106865510344505
0	5448	0.012199059128761292
0	5452	0.0007181328255683184
0	5456	0.000718692026566714
0	5392	-0.011505135335028172
0	5462	0.012595969252288342
0	5500	0.0068441336043179035
0	5534	0.006125905085355043
0	5556	0.003967347554862499
0	5560	0.0007219000835902989
0	5604	0.007943193428218365
0	5586	-0.003250270849093795
0	5718	0.023823561146855354
0	5688	-0.0054054055362939835
0	5766	0.014027431607246399
0	5800	0.006102157291024923
0	5832	0.005731206387281418
0	5844	0.0021444910671561956
0	5796	-0.008558692410588264
0	5830	0.006054059136658907
0	5730	-0.01780732534825802
0	5608	-0.021778196096420288
0	5386	-0.039883580058813095
0	5228	-0.02852020040154457
0	5052	-0.03181527927517891
0	5012	-0.007230832241475582
0	5034	0.003982188645750284
