0	5712	0.00468232249841094
0	5614	-0.017618082463741302
0	5626	0.0021591277327388525
0	5636	0.0017991435015574098
0	5688	0.00934557057917118
0	5766	0.01399253774434328
0	5794	0.005015584174543619
0	5844	0.008940492756664753
0	5962	0.021051129326224327
0	5918	-0.007827138528227806
0	5838	-0.014184900559484959
0	5716	-0.021584514528512955
0	5674	-0.0074208443984389305
0	5656	-0.0031739312689751387
0	5410	-0.043313924223184586
0	5242	-0.02960456907749176
0	5236	-0.0010626866715028882
0	5084	-0.027104781940579414
0	5116	0.005730795674026012
0	5206	0.016080426052212715
0	5176	-0.005361227318644524
0	5144	-0.005732369609177113
0	5218	0.013287683948874474
0	5246	0.005038992501795292
0	5302	0.010100159794092178
0	5286	-0.0028917405288666487
0	5260	-0.004706904757767916
0	5336	0.013791101984679699
0	5390	0.00981544516980648
0	5398	0.001456469763070345
0	5406	0.001459019840694964
0	5410	0.0007308695348910987
0	5476	0.012074348516762257
0	5460	-0.0029297948349267244
0	5598	0.025296656414866447
0	5588	-0.0018340996466577053
0	5440	-0.027174245566129684
0	5404	-0.006624304223805666
0	5580	0.032473124563694
0	5580	0.0
0	5482	-0.01816204935312271
0	5398	-0.01560178305953741
0	5402	0.0007444076472893357
0	5462	0.011184986680746078
0	5486	0.004479394759982824
0	5480	-0.0011193194659426808
0	5458	-0.004098106175661087
0	5846	0.07217619568109512
0	6350	0.09331374615430832
0	6016	-0.06137148663401604
1	5086	-0.17004108428955078
0	4948	-0.025245750322937965
0	5406	0.08388687670230865
0	5652	0.04500548914074898
0	5660	0.001459978404454887
0	5596	-0.011654444970190525
0	5566	-0.005452760960906744
0	5546	-0.003628446953371167
0	5596	0.009059612639248371
0	5672	0.013753498904407024
0	5646	-0.004697380121797323
0	5682	0.006494678091257811
0	5626	-0.010086333379149437
0	5674	0.008637649938464165
0	5684	0.001797203440219164
0	5706	0.003951811697334051
0	5734	0.00502602756023407
0	5700	-0.006092316936701536
0	5680	-0.003577390918508172
0	5744	0.011440829373896122
0	5822	0.013929897919297218
0	5804	-0.0032080987002700567
0	5878	0.013157114386558533
0	5836	-0.007446544244885445
0	5762	-0.013091166503727436
0	5644	-0.02084118314087391
0	5494	-0.026467474177479744
0	5326	-0.029637295752763748
0	5170	-0.027604755014181137
0	5168	-0.00035638766712509096
0	5134	-0.006089261267334223
0	5110	-0.004297070670872927
0	5106	-0.0007154867053031921
0	5166	0.010751531459391117
0	5174	0.0014377111801877618
0	5216	0.007570022251456976
0	5298	0.014813387766480446
0	5336	0.006875836756080389
0	5350	0.0025364155881106853
0	5442	0.016692673787474632
0	5386	-0.010174911469221115
0	5406	0.003639628179371357
0	5366	-0.007291464135050774
0	5394	0.00511210085824132
0	5472	0.014265161007642746
0	5498	0.00476120738312602
0	5578	0.014668491668999195
0	5608	0.0055059343576431274
0	5586	-0.004039958585053682
0	5454	-0.024253707379102707
0	5532	0.014357238076627254
0	5610	0.014382828958332539
0	5516	-0.01735384576022625
0	5436	-0.014802205376327038
0	5468	0.005935525521636009
0	5460	-0.0014865834964439273
0	5474	0.002604489680379629
0	5438	-0.0066980901174247265
0	5528	0.016733601689338684
0	6018	0.09090346843004227
0	6570	0.1018700823187828
0	5976	-0.10866118967533112
1	4796	-0.2147250473499298
0	5006	0.038285769522190094
0	5522	0.09416516870260239
0	5564	0.007648415397852659
0	5590	0.004724753089249134
0	5602	0.0021768049336969852
0	5596	-0.0010866547236219049
0	5606	0.0018084055045619607
0	5618	0.0021679431665688753
0	5648	0.005412296857684851
0	5602	-0.008286795578897
0	5582	-0.003597855567932129
0	5686	0.018687782809138298
0	5628	-0.010408691130578518
0	5650	0.0039450558833777905
0	5654	0.0007169743767008185
0	5666	0.0021503320895135403
0	5706	0.007164349779486656
0	5740	0.006080549210309982
0	5742	0.0003572364221327007
0	5794	0.009280852973461151
0	5854	0.010690994560718536
0	5866	0.00213290355168283
0	5894	0.004965067375451326
0	5832	-0.01096594613045454
0	5662	-0.0300045907497406
0	5512	-0.026439793407917023
0	5302	-0.037019189447164536
0	5164	-0.024429678916931152
0	5050	-0.02034987509250641
0	5050	0.0
0	5072	0.003942934796214104
0	5072	0.0
0	5134	0.011137458495795727
0	5214	0.014408010058104992
0	5294	0.014440607279539108
0	5286	-0.0014467418659478426
0	5318	0.005797801539301872
0	5362	0.00798586755990982
0	5334	-0.005089798476547003
0	5396	0.011291751638054848
0	5414	0.003282355610281229
0	5462	0.008761895820498466
0	5456	-0.0010967317502945662
0	5476	0.003659607609733939
0	5512	0.006594292353838682
0	5516	0.0007333349785767496
0	5498	-0.0033030351623892784
0	5544	0.008451842702925205
0	5576	0.005886608734726906
0	5584	0.001473151845857501
0	5614	0.00553144933655858
0	5606	-0.001477232202887535
0	5520	-0.015905700623989105
0	5512	-0.0014830194413661957
0	5498	-0.0026004258543252945
0	5442	-0.010412276722490788
0	5418	-0.004464341327548027
0	5444	0.00483289361000061
0	5478	0.006308992393314838
0	6016	0.09956694394350052
0	6590	0.10560011863708496
0	6036	-0.10098063945770264
1	4694	-0.24318936467170715
0	4998	0.05523590371012688
0	5608	0.11098038405179977
0	5634	0.004721321165561676
0	5626	-0.0014496605144813657
0	5626	0.0
0	5688	0.01119618583470583
0	5684	-0.0007207986782304943
0	5682	-0.0003597769245970994
0	5664	-0.003232797374948859
0	5656	-0.00143506343010813
0	5664	0.0014333492144942284
0	5658	-0.0010738063137978315
0	5690	0.0057219830341637135
0	5652	-0.006787815131247044
0	5696	0.007852375507354736
0	5740	0.00784528162330389
0	5732	-0.001425025868229568
0	5772	0.007118873298168182
0	5816	0.007823427207767963
0	5910	0.016692910343408585
0	5908	-0.0003543502534739673
0	5872	-0.006363422144204378
0	5860	-0.002116476884111762
0	5772	-0.015482781454920769
0	5572	-0.03511523827910423
0	5370	-0.03543984144926071
0	5202	-0.029493344947695732
0	5068	-0.02363704703748226
0	5058	-0.0017798872431740165
0	5008	-0.00895137619227171
0	5084	0.013580643571913242
0	5116	0.005715237930417061
0	5202	0.01540482509881258
0	5220	0.003232603892683983
0	5242	0.003960586152970791
0	5272	0.005413273349404335
0	5296	0.004341481253504753
0	5338	0.007615409791469574
0	5372	0.006177700124680996
0	5410	0.006916720420122147
0	5380	-0.005468730814754963
0	5452	0.013147643767297268
0	5412	-0.007313416805118322
0	5472	0.010988743044435978
0	5462	-0.0018334718188270926
0	5416	-0.008446048945188522
0	5446	0.005519237834960222
0	5474	0.005160339176654816
0	5528	0.009970334358513355
0	5562	0.006288764998316765
0	5590	0.00519011914730072
0	5582	-0.0014858104987069964
0	5558	-0.004465448670089245
0	5552	-0.001118457061238587
0	5592	0.007466586772352457
0	5540	-0.009705355390906334
0	5508	-0.005966216325759888
0	5400	-0.0200977586209774
0	5424	0.004456990398466587
0	5464	0.007411525119096041
0	5470	0.001108606462366879
0	5506	0.006635862868279219
0	6156	0.11952776461839676
0	6588	0.07897815853357315
0	5790	-0.14468403160572052
1	4522	-0.22914005815982819
0	5000	0.08677130937576294
0	5546	0.09929318726062775
0	5584	0.006901812739670277
0	5610	0.004716239403933287
0	5602	-0.0014493978815153241
0	5656	0.009770337492227554
0	5642	-0.0025299375411123037
0	5602	-0.007218392565846443
0	5634	0.0057702017948031425
0	5570	-0.011528484523296356
0	5626	0.01007810514420271
0	5656	0.005393161438405514
0	5618	-0.006823895964771509
0	5618	0.0
0	5648	0.005382582079619169
0	5678	0.0053807152435183525
0	5640	-0.006811663508415222
0	5710	0.012541656382381916
0	5774	0.011455847881734371
0	5774	0.0
0	5836	0.0110703743994236
0	5828	-0.001425652182660997
0	5856	0.004977128934115171
0	5854	-0.00035460153594613075
0	5784	-0.012382513843476772
0	5548	-0.041669607162475586
0	5370	-0.031421005725860596
0	5198	-0.03050294518470764
0	5152	-0.008225350640714169
0	5090	-0.011128661222755909
0	5098	0.0014310928527265787
0	5106	0.0014302571071311831
0	5156	0.008962607942521572
0	5152	-0.0007188469753600657
0	5212	0.010812369175255299
0	5240	0.005057620350271463
0	5264	0.004345988854765892
0	5314	0.00907484907656908
0	5356	0.0076361787505447865
0	5350	-0.0010927236871793866
0	5424	0.013494948856532574
0	5420	-0.0007303535239771008
0	5446	0.004754126537591219
0	5424	-0.004026943817734718
0	5442	0.0032986768055707216
0	5430	-0.0022018887102603912
0	5420	-0.0018376947846263647
0	5494	0.01361729297786951
0	5556	0.011424219235777855
0	5538	-0.0033211559057235718
0	5568	0.005543305538594723
0	5598	0.005552470684051514
0	5618	0.003706907154992223
0	5602	-0.00296989269554615
0	5644	0.0078081428073346615
0	5540	-0.019351236522197723
0	5490	-0.009303940460085869
0	5450	-0.007437616586685181
0	5448	-0.00037130090640857816
0	5420	-0.005188708193600178
0	5456	0.0066576250828802586
0	5502	0.00848823320120573
0	6016	0.09461631625890732
0	6608	0.10840240865945816
0	6022	-0.10635852813720703
1	4800	-0.22071042656898499
0	4848	0.008692502975463867
0	5500	0.1183704137802124
0	5626	0.022849543020129204
0	5616	-0.0018105008639395237
0	5620	0.0007230396149680018
0	5590	-0.005416400730609894
0	5654	0.01154317893087864
0	5634	-0.0036027380265295506
0	5658	0.004317841026932001
0	5686	0.0050309645012021065
0	5658	-0.0050232624635100365
0	5652	-0.0010748835047706962
0	5660	0.001431827200576663
0	5702	0.007512431126087904
0	5726	0.004288624506443739
0	5710	-0.0028563947416841984
0	5736	0.004638549871742725
0	5770	0.006061542313545942
0	5798	0.0049868798814713955
0	5878	0.01423521339893341
0	5854	-0.0042620194144546986
0	5872	0.003189641982316971
0	5882	0.0017676171846687794
0	5838	-0.0077576786279678345
0	5690	-0.02603006362915039
0	5480	-0.03688395023345947
0	5320	-0.028105678036808968
0	5166	-0.02716241031885147
0	5058	-0.019211839884519577
0	5038	-0.003578201634809375
0	5050	0.002143878024071455
0	5076	0.004639487713575363
0	5140	0.011449153535068035
0	5156	0.0028706074226647615
0	5212	0.010074841789901257
0	5234	0.003967681434005499
0	5312	0.014097405597567558
0	5340	0.005071055144071579
0	5462	0.022134598344564438
0	5368	-0.017074765637516975
0	5358	-0.0018199686892330647
0	5404	0.008387120440602303
0	5406	0.0003652078448794782
0	5458	0.009510107338428497
0	5482	0.004395818803459406
0	5478	-0.000733729510102421
0	5542	0.011756349354982376
0	5592	0.009195571765303612
0	5590	-0.00036822466063313186
0	5590	0.0
0	5622	0.005909583531320095
0	5604	-0.003328894730657339
0	5624	0.003704892937093973
0	5616	-0.0014843218959867954
0	5578	-0.007060222327709198
0	5482	-0.017848731949925423
0	5412	-0.013014539144933224
0	5418	0.0011148962657898664
0	5420	0.00037105291266925633
0	5396	-0.004442689474672079
0	5528	0.024380933493375778
0	6154	0.11528544872999191
0	6646	0.0900120809674263
1	5818	-0.15010514855384827
0	4090	-0.31201472878456116
0	5086	0.18106457591056824
0	5576	0.08915790915489197
0	5568	-0.0014533123467117548
0	5594	0.004716753028333187
0	5594	0.0
0	5604	0.001810216810554266
0	5606	0.0003615067689679563
0	5606	0.0
0	5582	-0.004327599424868822
0	5608	0.004684741143137217
0	5674	0.011883041821420193
0	5656	-0.0032370220869779587
0	5660	0.0007188469753600657
0	5674	0.0025149399880319834
0	5682	0.0014363861409947276
0	5692	0.0017944944556802511
0	5748	0.010044964030385017
0	5772	0.004301280714571476
0	5814	0.007520592305809259
0	5828	0.0025039049796760082
0	5864	0.0064290305599570274
0	5880	0.0028508640825748444
0	5852	-0.0049751834012568
0	5822	-0.005316886585205793
0	5662	-0.028289545327425003
0	5484	-0.03142285719513893
0	5284	-0.03531572222709656
0	5158	-0.02236342243850231
0	5082	-0.01360885240137577
0	5016	-0.011870360933244228
0	5054	0.006796718575060368
0	5080	0.004651273600757122
0	5092	0.0021531099919229746
0	5184	0.01655430532991886
0	5190	0.0010822901967912912
0	5264	0.013380748219788074
0	5310	0.008334843441843987
0	5352	0.007623703684657812
0	5416	0.011634953320026398
0	5392	-0.004367501009255648
0	5364	-0.0051021031104028225
0	5408	0.008032714948058128
0	5466	0.010604582726955414
0	5430	-0.006589946802705526
0	5412	-0.0032998863607645035
0	5416	0.0007345199701376259
0	5472	0.010300681926310062
0	5472	0.0
0	5484	0.0022151118610054255
0	5538	0.009988284669816494
0	5604	0.01222977228462696
0	5558	-0.008537490852177143
0	5590	0.005950978957116604
0	5562	-0.005215577315539122
0	5624	0.011567451991140842
0	5652	0.005225245375186205
0	5546	-0.019760634750127792
0	5482	-0.01191155705600977
0	5456	-0.004829362500458956
0	5446	-0.0018531559035182
0	5404	-0.007762636058032513
0	5418	0.002581977751106024
0	5488	0.012883119285106659
0	6052	0.10354957729578018
0	6644	0.10811600089073181
0	6012	-0.1144084632396698
1	4662	-0.2432870715856552
0	5012	0.06332091242074966
0	5530	0.09390749037265778
0	5600	0.012681465595960617
0	5602	0.00036187306977808475
0	5650	0.008672504685819149
0	5634	-0.0028866278007626534
0	5660	0.004686035681515932
0	5622	-0.006839370355010033
0	5656	0.006111736875027418
0	5680	0.004307971801608801
0	5668	-0.0021513088140636683
0	5668	0.0
0	5674	0.0010732172522693872
0	5654	-0.003574492409825325
0	5736	0.01465105451643467
0	5682	-0.009638038463890553
0	5714	0.0057083056308329105
0	5738	0.004277363419532776
0	5770	0.00569929089397192
0	5816	0.00818699598312378
0	5844	0.004975419025868177
0	5904	0.010638800449669361
0	5872	-0.0056590428575873375
0	5876	0.0007056083995848894
0	5766	-0.019350524991750717
0	5610	-0.027386678382754326
0	5412	-0.034735217690467834
0	5226	-0.0327526293694973
0	5096	-0.023083753883838654
0	5040	-0.009997976943850517
0	5070	0.005344036966562271
0	5042	-0.004986051004379988
0	5094	0.009286709129810333
0	5202	0.019346056506037712
0	5198	-0.000718235969543457
0	5288	0.016204148530960083
0	5294	0.001082524424418807
0	5266	-0.005062925163656473
0	5340	0.013409360311925411
0	5370	0.005446623079478741
0	5380	0.0018189535476267338
0	5382	0.00036442704731598496
0	5404	0.004015673417598009
0	5424	0.0036566192284226418
0	5446	0.004027926828712225
0	5478	0.0058691902086138725
0	5476	-0.000367282482329756
0	5448	-0.005149456672370434
0	5472	0.00442168116569519
0	5474	0.0003691489982884377
0	5496	0.004069201182574034
0	5546	0.009268069639801979
0	5572	0.004830080550163984
0	5610	0.007072486914694309
0	5594	-0.002982811536639929
0	5590	-0.0007465007365681231
0	5624	0.006346046458929777
0	5600	-0.004473661072552204
0	5478	-0.02268838696181774
0	5424	-0.010018677450716496
0	5442	0.003331646788865328
0	5452	0.0018466765759512782
0	5454	0.00036840554093942046
0	5444	-0.0018379651010036469
0	5598	0.028262758627533913
0	6306	0.1296180933713913
0	6572	0.04839766025543213
1	5584	-0.17838013172149658
0	4198	-0.2497597187757492
0	5290	0.19813957810401917
0	5614	0.058817122131586075
0	5632	0.003262997604906559
0	5636	0.000724016863387078
0	5652	0.0028920192271471024
0	5692	0.007220129482448101
0	5688	-0.0007209458854049444
0	5694	0.0010800561867654324
0	5676	-0.0032359356991946697
0	5720	0.007899272255599499
0	5676	-0.007887566462159157
0	5684	0.0014323740033432841
0	5688	0.0007153843762353063
0	5666	-0.003931285813450813
0	5720	0.009644120000302792
0	5676	-0.007853029295802116
0	5722	0.00820598192512989
0	5720	-0.000356501986971125
0	5788	0.012114157900214195
0	5814	0.004626718815416098
0	5878	0.011366192251443863
0	5886	0.0014169658534228802
0	5896	0.0017665764316916466
0	5848	-0.008457453921437263
0	5722	-0.02214956097304821
0	5542	-0.031590770930051804
0	5358	-0.03230337053537369
0	5182	-0.0310712531208992
0	5076	-0.018867699429392815
0	5054	-0.003927776589989662
0	5028	-0.004618390928953886
0	5046	0.0032023151870816946
0	5102	0.009996430017054081
0	5152	0.008953619748353958
0	5240	0.015804030001163483
0	5254	0.0025204939302057028
0	5332	0.014079760760068893
0	5254	-0.014109985902905464
0	5336	0.014873034320771694
0	5366	0.005452562589198351
0	5400	0.0061928522773087025
0	5414	0.0025542783550918102
0	5408	-0.0010964912362396717
0	5432	0.00439345883205533
0	5398	-0.00623296620324254
0	5480	0.01506208535283804
0	5440	-0.007356186397373676
0	5440	0.0
0	5476	0.006643455475568771
0	5430	-0.008505183272063732
0	5510	0.014826713129878044
0	5472	-0.007058736402541399
0	5532	0.011174016632139683
0	5552	0.0037331075873225927
0	5556	0.0007479990599676967
0	5568	0.0022463216446340084
0	5576	0.0014973048819229007
0	5566	-0.0018690889701247215
0	5586	0.0037292561028152704
0	5496	-0.01672862470149994
0	5434	-0.011492690071463585
0	5430	-0.0007396084838546813
0	5424	-0.0011067931773141026
0	5488	0.011782466433942318
0	5458	-0.005511666182428598
0	5652	0.03559459000825882
0	6284	0.11567606031894684
0	6622	0.06150747835636139
0	5820	-0.1447426974773407
1	4484	-0.2404174953699112
0	5192	0.12808452546596527
0	5590	0.07209274172782898
0	5600	0.001809452660381794
0	5616	0.0028917754534631968
0	5644	0.005055002868175507
0	5602	-0.00757129630073905
0	5654	0.009367118589580059
0	5614	-0.007196228951215744
0	5662	0.008626474067568779
0	5662	0.0
0	5618	-0.007887848652899265
0	5684	0.01182414311915636
0	5644	-0.007157085929065943
0	5672	0.005006616003811359
0	5668	-0.0007147196447476745
0	5664	-0.0007142431568354368
0	5746	0.01463362481445074
0	5754	0.0014262283220887184
0	5786	0.005698546767234802
0	5832	0.008181947283446789
0	5838	0.0010650886688381433
0	5810	-0.004958560690283775
0	5852	0.007421193644404411
0	5838	-0.002467510988935828
0	5670	-0.0295493733137846
0	5514	-0.02740463986992836
0	5286	-0.0400853268802166
0	5164	-0.021575354039669037
0	5092	-0.01284338254481554
0	5024	-0.012182595208287239
0	5052	0.005000237841159105
0	5106	0.009651359170675278
0	5128	0.0039434065110981464
0	5180	0.009347137995064259
0	5182	0.00036044695298187435
0	5242	0.010843504220247269
0	5294	0.009418128989636898
0	5314	0.003630247199907899
0	5356	0.00763738201931119
0	5368	0.00218616402707994
0	5444	0.01387046929448843
0	5410	-0.0062117851339280605
0	5468	0.010614286176860332
0	5438	-0.0054960488341748714
0	5422	-0.002935420721769333
0	5434	0.0022048824466764927
0	5422	-0.0022079930640757084
0	5450	0.005162241868674755
0	5470	0.003694217186421156
0	5466	-0.0007402837509289384
0	5494	0.005193713121116161
0	5510	0.002974162111058831
0	5494	-0.002979700919240713
0	5516	0.004106213804334402
0	5502	-0.0026182907167822123
0	5554	0.009735275991261005
0	5574	0.0037434021942317486
0	5568	-0.0011210063239559531
0	5604	0.006709158420562744
0	5628	0.004458590876311064
0	5582	-0.00851378869265318
0	5448	-0.0247202068567276
0	5458	0.0018409198382869363
0	5428	-0.005511598661541939
0	5466	0.006970771588385105
0	5506	0.007324934471398592
0	5508	0.00036565744085237384
0	5902	0.07194069027900696
0	6696	0.14445993304252625
0	6450	-0.04439631849527359
1	5022	-0.2560485601425171
0	5402	0.06830846518278122
0	5614	0.03811075910925865
0	5630	0.0028737697284668684
0	5616	-0.0025116612669080496
0	5628	0.002150357700884342
0	5660	0.005727650597691536
0	5654	-0.0010724116582423449
0	5652	-0.00035703659523278475
0	5668	0.002853202633559704
0	5704	0.006412006914615631
0	5680	-0.004269348457455635
0	5640	-0.007108415011316538
0	5672	0.005681818351149559
0	5682	0.0017739302711561322
0	5694	0.0021264529787003994
0	5712	0.003187044057995081
0	5720	0.001415311242453754
0	5752	0.0056561753153800964
0	5784	0.005651247221976519
0	5798	0.0024701524525880814
0	5832	0.005991330370306969
0	5850	0.0031647426076233387
0	5856	0.0010524961398914456
0	5772	-0.01469816267490387
0	5692	-0.013973310589790344
0	5440	-0.043968316167593
0	5238	-0.03525838628411293
0	5126	-0.019625021144747734
0	5074	-0.009195944294333458
0	5024	-0.008914562873542309
0	5074	0.008914456702768803
0	5132	0.010360967367887497
0	5182	0.0089575769379735
0	5162	-0.0035926424898207188
0	5226	0.011527793481945992
0	5282	0.01011122390627861
0	5318	0.0065148938447237015
0	5336	0.003264062572270632
0	5392	0.01017429493367672
0	5404	0.0021838564425706863
0	5392	-0.002187838079407811
0	5416	0.004383348394185305
0	5408	-0.0014631113735958934
0	5452	0.008060084655880928
0	5450	-0.00036688271211460233
0	5494	0.008083480410277843
0	5478	-0.002943377010524273
0	5478	0.0
0	5438	-0.007381798699498177
0	5444	0.001109631615690887
0	5474	0.005560292396694422
0	5530	0.01040221843868494
0	5568	0.007072662468999624
0	5616	0.008949880488216877
0	5620	0.000746547244489193
0	5620	0.0
0	5592	-0.0052223214879632
0	5594	0.00037220382364466786
0	5540	-0.01002041157335043
0	5492	-0.008881432935595512
0	5484	-0.001475978409871459
0	5438	-0.008465531282126904
0	5448	0.001836884650401771
0	5472	0.00440135458484292
0	5472	0.0
0	6028	0.10161933302879333
0	6708	0.12372034788131714
0	6168	-0.09742719680070877
1	4766	-0.25169050693511963
0	4802	0.006487109698355198
0	5500	0.12623430788516998
0	5620	0.021688053384423256
0	5592	-0.005054334178566933
0	5578	-0.002524372423067689
0	5630	0.009369144216179848
0	5602	-0.005039475858211517
0	5656	0.009712696075439453
0	5616	-0.007186919916421175
0	5662	0.008258132264018059
0	5694	0.005737097468227148
0	5674	-0.003580336691811681
0	5674	0.0
0	5706	0.005716803949326277
0	5714	0.0014280274044722319
0	5720	0.0010703963926061988
0	5718	-0.000356586737325415
0	5780	0.011047754436731339
0	5810	0.005339725408703089
0	5812	0.00035552604822441936
0	5838	0.004614401608705521
0	5860	0.0038965176790952682
0	5852	-0.0014137772377580404
0	5800	-0.009167195297777653
0	5658	-0.024981820955872536
0	5500	-0.027766386047005653
0	5240	-0.04568403214216232
0	5166	-0.013062665238976479
0	5100	-0.011757160536944866
0	5042	-0.010397992096841335
0	5038	-0.0007159220986068249
0	5062	0.004289492964744568
0	5108	0.008243038319051266
0	5174	0.011863249354064465
0	5214	0.007207899820059538
0	5274	0.010835540480911732
0	5228	-0.008325088769197464
0	5300	0.013060039840638638
0	5308	0.0014542457647621632
0	5324	0.0029139297548681498
0	5358	0.006204832345247269
0	5356	-0.0003657377092167735
0	5416	0.010993440635502338
0	5408	-0.0014681053580716252
0	5396	-0.002206179779022932
0	5452	0.010315609164536
0	5454	0.00036902184365317225
0	5428	-0.004805086180567741
0	5446	0.0033338270150125027
0	5482	0.00668267160654068
0	5518	0.006696345284581184
0	5544	0.00484586413949728
0	5558	0.0026144441217184067
0	5622	0.01197365764528513
0	5618	-0.0007491852738894522
0	5650	0.005994979292154312
0	5638	-0.0022460133768618107
0	5612	-0.004854308441281319
0	5500	-0.020852986723184586
0	5454	-0.008543410338461399
0	5424	-0.005557613912969828
0	5416	-0.001478506252169609
0	5464	0.0088517339900136
0	5434	-0.00552025344222784
0	5674	0.044091708958148956
0	6454	0.14289553463459015
0	6546	0.016733763739466667
1	5436	-0.20029594004154205
0	4294	-0.20590178668498993
0	5252	0.17378580570220947
0	5584	0.06025262549519539
0	5618	0.006162025034427643
0	5608	-0.001809496316127479
0	5674	0.011928861029446125
0	5666	-0.001443609013222158
0	5642	-0.004323805216699839
0	5662	0.003599064191803336
0	5620	-0.007548617199063301
0	5648	0.005026629194617271
0	5670	0.003944725729525089
0	5666	-0.0007164179114624858
0	5668	0.0003578927426133305
0	5664	-0.0007152564357966185
0	5730	0.01179427932947874
0	5744	0.0025002083275467157
0	5766	0.00392595399171114
0	5822	0.009986447170376778
0	5822	0.0
0	5846	0.004269905388355255
0	5888	0.0074570332653820515
0	5896	0.0014167482731863856
0	5898	0.0003532029513735324
0	5790	-0.019018996506929398
0	5594	-0.03445003181695938
0	5406	-0.033012960106134415
0	5218	-0.0330648310482502
0	5154	-0.011338270269334316
0	5044	-0.019649172201752663
0	5054	0.0017904675332829356
0	5064	0.0017823828384280205
0	5114	0.008921879343688488
0	5158	0.007873264141380787
0	5220	0.011124667711555958
0	5272	0.009352069348096848
0	5310	0.0068507143296301365
0	5350	0.007226739078760147
0	5378	0.005067628808319569
0	5356	-0.003988542128354311
0	5414	0.010532050393521786
0	5376	-0.006910095922648907
0	5386	0.0018216928001493216
0	5388	0.0003649590362329036
0	5410	0.004021398723125458
0	5442	0.005858373828232288
0	5482	0.0073358602821826935
0	5408	-0.013593113049864769
0	5438	0.005522827617824078
0	5474	0.006643046624958515
0	5538	0.011835195124149323
0	5522	-0.002964426763355732
0	5550	0.005199499893933535
0	5516	-0.006327229086309671
0	5536	0.0037307399325072765
0	5570	0.006352290511131287
0	5516	-0.010090440511703491
0	5458	-0.010830460116267204
0	5430	-0.005220698658376932
0	5444	0.0026058792136609554
0	5440	-0.0007426937809213996
0	5486	0.008520622737705708
0	5486	0.0
0	5712	0.041657961905002594
0	6558	0.15541185438632965
0	6480	-0.014212309382855892
1	5264	-0.21995247900485992
0	4758	-0.09155167639255524
0	5548	0.1434485763311386
0	5592	0.007981328293681145
0	5614	0.0039849779568612576
0	5668	0.009769512340426445
0	5660	-0.0014447909779846668
0	5652	-0.001442411681637168
0	5646	-0.0010800949530676007
0	5678	0.005752360913902521
0	5680	0.0003590148699004203
0	5646	-0.006096030585467815
0	5626	-0.003580806776881218
0	5684	0.010372702032327652
0	5648	-0.006430178880691528
0	5736	0.01570792868733406
0	5772	0.006417798809707165
0	5670	-0.018159806728363037
0	5756	0.015297229401767254
0	5768	0.0021317163482308388
0	5818	0.008871749974787235
0	5862	0.007793220225721598
0	5916	0.009541647508740425
0	5930	0.0024666995741426945
0	5894	-0.006324888672679663
0	5694	-0.035045091062784195
0	5506	-0.03290241211652756
0	5362	-0.025198908522725105
0	5182	-0.03156307339668274
0	5098	-0.0148488599807024
0	5036	-0.011049855500459671
0	5012	-0.004283164627850056
0	5080	0.012117324396967888
0	5100	0.003573853522539139
0	5136	0.006451844237744808
0	5194	0.010424405336380005
0	5256	0.01117506343871355
0	5292	0.006504535209387541
0	5308	0.0028971859719604254
0	5348	0.0072577716782689095
0	5380	0.005817829165607691
0	5432	0.009471191093325615
0	5432	0.0
0	5420	-0.002191087231040001
0	5468	0.008778453804552555
0	5454	-0.0025631950702518225
0	5464	0.0018340098904445767
0	5486	0.004042433574795723
0	5506	0.0036790857557207346
0	5544	0.007000995334237814
0	5584	0.007379619870334864
0	5566	-0.0033256146125495434
0	5554	-0.0022211254108697176
0	5600	0.008533372543752193
0	5484	-0.021562941372394562
0	5438	-0.008572600781917572
0	5430	-0.0014932616613805294
0	5424	-0.0011204760521650314
0	5452	0.0052268714644014835
0	5464	0.0022363304160535336
0	5518	0.01004065852612257
0	6168	0.12049978971481323
0	6700	0.09792492538690567
1	5768	-0.16986428201198578
0	4056	-0.3107641935348511
0	5116	0.19367805123329163
0	5544	0.07823925465345383
0	5630	0.015693429857492447
0	5628	-0.00036421470576897264
0	5662	0.006179646123200655
0	5638	-0.004353820346295834
0	5672	0.006158304866403341
0	5666	-0.0010851871920749545
0	5682	0.002889755880460143
0	5676	-0.0010819518938660622
0	5646	-0.0054030041210353374
0	5688	0.007555496878921986
0	5714	0.0046709380112588406
0	5690	-0.004305756650865078
0	5690	0.0
0	5684	-0.0010743190068751574
0	5772	0.015747280791401863
0	5806	0.006076709367334843
0	5834	0.004996847361326218
0	5886	0.009266959503293037
0	5902	0.0028445792850106955
0	5896	-0.001063792034983635
0	5894	-0.0003536234435159713
0	5812	-0.014458511024713516
0	5660	-0.026744555681943893
0	5430	-0.04042226821184158
0	5332	-0.01723228394985199
0	5142	-0.033574044704437256
0	5038	-0.018547581508755684
0	5000	-0.0068065389059484005
0	5016	0.002849848475307226
0	5056	0.007128853816539049
0	5112	0.010009413585066795
0	5132	0.0035858573392033577
0	5182	0.008991296403110027
0	5274	0.016591724008321762
0	5286	0.002168883802369237
0	5336	0.009058080613613129
0	5378	0.00762398075312376
0	5384	0.0010911471908912063
0	5436	0.009473376907408237
0	5462	0.004742736928164959
0	5436	-0.004749263171106577
0	5478	0.00768489483743906
0	5514	0.006595580838620663
0	5544	0.005502231419086456
0	5572	0.005139815155416727
0	5524	-0.008821907453238964
0	5584	0.011046468280255795
0	5604	0.0036878143437206745
0	5568	-0.006649591028690338
0	5526	-0.007773842662572861
0	5428	-0.018180469051003456
0	5440	0.002232613507658243
0	5452	0.0022377760615199804
0	5456	0.0007468910771422088
0	5484	0.005227391608059406
0	5524	0.00746064493432641
0	6158	0.1179710403084755
0	6980	0.15189780294895172
1	5784	-0.2183464616537094
0	3894	-0.3434407114982605
0	5188	0.2368055135011673
0	5638	0.08231306076049805
0	5654	0.0029176848474889994
0	5678	0.00436400668695569
0	5628	-0.009069472551345825
0	5696	0.012309029698371887
0	5700	0.0007224911823868752
0	5654	-0.008292571641504765
0	5688	0.006119363475590944
0	5734	0.00826664175838232
0	5712	-0.003947179298847914
0	5744	0.00573189090937376
0	5726	-0.0032190761994570494
0	5770	0.007858920842409134
0	5754	-0.002853949088603258
0	5808	0.009621666744351387
0	5784	-0.004269095603376627
0	5838	0.009594086557626724
0	5896	0.010290499776601791
0	5920	0.004249893594533205
0	5990	0.0123667623847723
0	5986	-0.0007043410441838205
0	5942	-0.007723001763224602
0	5746	-0.034304115921258926
0	5564	-0.03180002048611641
0	5278	-0.04994818940758705
0	5040	-0.04162488505244255
0	4858	-0.032039619982242584
0	4804	-0.009626125916838646
0	4772	-0.005737782921642065
0	4912	0.02497175708413124
0	4990	0.01393570564687252
0	5036	0.008250332437455654
0	5086	0.009001008234918118
0	5138	0.009394421242177486
0	5182	0.007972651161253452
0	5260	0.014177350327372551
0	5278	0.0032804410438984632
0	5314	0.006575902923941612
0	5342	0.005126264411956072
0	5366	0.004404477775096893
0	5444	0.014344914816319942
0	5514	0.012897361069917679
0	5498	-0.0029518117662519217
0	5568	0.012935813516378403
0	5614	0.008510428480803967
0	5628	0.0025932330172508955
0	5566	-0.01149538904428482
0	5386	-0.033429909497499466
0	5386	0.0
0	5342	-0.008224913850426674
0	5398	0.010510510765016079
0	5374	-0.004521136172115803
0	5338	-0.006805979181081057
0	5462	0.023503247648477554
0	6156	0.1316271871328354
0	7238	0.20408420264720917
1	6214	-0.19051162898540497
0	3322	-0.5335596203804016
0	4980	0.3087063431739807
0	5624	0.11975305527448654
0	5644	0.003702698042616248
0	5664	0.0036878143437206745
0	5766	0.018735533580183983
0	5700	-0.012072728946805
0	5766	0.012031500227749348
0	5626	-0.025431117042899132
0	5752	0.02283739484846592
0	5678	-0.013374137692153454
0	5842	0.029575126245617867
0	5834	-0.0014383660163730383
0	5760	-0.013267671689391136
0	5718	-0.007516106124967337
0	5750	0.005719596985727549
0	5826	0.013563677668571472
0	5714	-0.019957946613430977
0	5944	0.04096073657274246
0	5954	0.0017775672022253275
0	5808	-0.02589295245707035
0	6016	0.03679679334163666
0	5970	-0.008107632398605347
0	5696	-0.04811575636267662
0	5842	0.025593681260943413
0	5940	0.017132468521595
0	5626	-0.054701924324035645
0	5406	-0.03828972578048706
0	5252	-0.02691994048655033
0	4912	-0.060129452496767044
0	4554	-0.06380248069763184
0	4988	0.07678516954183578
0	4780	-0.03679852932691574
0	4738	-0.007467640098184347
0	5358	0.11083170771598816
0	5372	0.002507223282009363
0	5390	0.003231172449886799
0	5110	-0.05035609006881714
0	5226	0.020944172516465187
0	5152	-0.013393179513514042
0	5238	0.015621593222022057
0	4876	-0.06593166291713715
0	5514	0.11688549071550369
0	5348	-0.030471762642264366
0	5410	0.011409783735871315
0	5484	0.013643906451761723
0	5660	0.032503511756658554
0	5642	-0.0033276230096817017
0	5524	-0.021824100986123085
0	5346	-0.033006563782691956
0	5556	0.03908722102642059
0	5860	0.05667200684547424
0	5302	-0.10412390530109406
0	5424	0.02286042645573616
0	5738	0.05893762409687042
0	7072	0.25055405497550964
0	6474	-0.11152694374322891
1	4680	-0.3328262269496918
0	4548	-0.024599328637123108
0	5340	0.14824427664279938
0	5808	0.08736559748649597
0	5564	-0.04519690200686455
0	5294	-0.049835726618766785
0	5788	0.09089348465204239
0	5764	-0.004387622233480215
0	5796	0.00583572406321764
0	5666	-0.023646682500839233
0	5800	0.02433355152606964
0	5788	-0.0021700605284422636
0	5780	-0.0014418225036934018
0	5732	-0.00861841905862093
0	5726	-0.0010741266887634993
0	5796	0.012468235567212105
0	5744	-0.009246636182069778
0	5802	0.010289404541254044
0	5822	0.003539864905178547
0	5946	0.02190348319709301
0	5942	-0.0007053761510178447
0	5976	0.0059851426631212234
0	5962	-0.0024579516611993313
0	5944	-0.003148871473968029
0	5798	-0.02548319101333618
0	5642	-0.02723843976855278
0	5346	-0.05158112570643425
0	5152	-0.03382187336683273
0	4974	-0.031138479709625244
0	4884	-0.015939170494675636
0	4878	-0.001072679995559156
0	4948	0.012499850243330002
0	5008	0.01068870909512043
0	5138	0.023204617202281952
0	5228	0.016129031777381897
0	5254	0.00466886954382062
0	5256	0.0003592298016883433
0	5296	0.007207553368061781
0	5322	0.0046981158666312695
0	5344	0.00398671068251133
0	5360	0.002905076602473855
0	5428	0.012379542924463749
0	5462	0.006203323137015104
0	5472	0.0018280420918017626
0	5462	-0.001830943045206368
0	5506	0.008069150149822235
0	5518	0.0022045853547751904
0	5472	-0.008462623693048954
0	5346	-0.023227233439683914
0	5336	-0.0018488389905542135
0	5334	-0.0003711630997713655
0	5332	-0.0003725643327925354
0	5364	0.005984962917864323
0	5414	0.009386498481035233
0	6268	0.16085487604141235
0	6986	0.13484075665473938
1	5696	-0.24024134874343872
0	3612	-0.38726940751075745
0	4906	0.24277977645397186
0	5592	0.12876181304454803
0	5658	0.012333529070019722
0	5674	0.002975489478558302
0	5694	0.003702698042616248
0	5722	0.005161924287676811
0	5728	0.0011021713726222515
0	5720	-0.0014650762313976884
0	5708	-0.002191380597651005
0	5706	-0.00036422794801183045
0	5776	0.012716328725218773
0	5726	-0.009058189578354359
0	5744	0.003253443166613579
0	5742	-0.0003606592945288867
0	5786	0.007919556461274624
0	5768	-0.0032335331197828054
0	5924	0.027974369004368782
0	5896	-0.005007212981581688
0	5942	0.008207055740058422
0	5992	0.008898274973034859
0	5998	0.0010645092697814107
0	5976	-0.0038882081862539053
0	5848	-0.02253732644021511
0	5744	-0.018256504088640213
0	5510	-0.04097834229469299
0	5282	-0.03989361599087715
0	5074	-0.03642221912741661
0	4968	-0.018691588193178177
0	4896	-0.01284857653081417
0	4874	-0.003944725729525089
0	4978	0.018508192151784897
0	4962	-0.002846198622137308
0	5058	0.017141224816441536
0	5132	0.013260381296277046
0	5110	-0.003955079708248377
0	5222	0.02020566537976265
0	5274	0.009409493766725063
0	5288	0.002540281508117914
0	5320	0.005821568891406059
0	5392	0.013129422441124916
0	5448	0.010231300257146358
0	5564	0.02123582735657692
0	5588	0.0043979668989777565
0	5512	-0.013940179720520973
0	5572	0.011020902544260025
0	5558	-0.0025749176274985075
0	5458	-0.01841598004102707
0	5370	-0.016252554953098297
0	5344	-0.00481749139726162
0	5364	0.003719500033184886
0	5374	0.0018670185236260295
0	5426	0.00974634476006031
0	5518	0.017302989959716797
0	6476	0.18055032193660736
0	7070	0.11143629252910614
1	5986	-0.2013971507549286
0	3646	-0.4328630566596985
0	5008	0.2541866898536682
0	5590	0.10859019309282303
0	5710	0.02229350619018078
0	5666	-0.008132184855639935
0	5684	0.003312761662527919
0	5714	0.005496921483427286
0	5738	0.004379988182336092
0	5730	-0.0014546336606144905
0	5748	0.0032606725580990314
0	5822	0.01336254645138979
0	5758	-0.011518802493810654
0	5808	0.008973761461675167
0	5796	-0.002147433115169406
0	5834	0.006783857010304928
0	5826	-0.0014249073574319482
0	5862	0.006402124650776386
0	5866	0.0007101936498656869
0	5906	0.007087088190019131
0	5936	0.005304852034896612
0	5986	0.008821764960885048
0	6010	0.004221338778734207
0	6018	0.0014018528163433075
0	5952	-0.011519932188093662
0	5770	-0.03165878355503082
0	5494	-0.047900035977363586
0	5154	-0.05898408591747284
0	5000	-0.026772676035761833
0	4936	-0.011222295463085175
0	4876	-0.010653788223862648
0	4916	0.007149496115744114
0	4986	0.012417659163475037
0	5040	0.009580583311617374
0	5090	0.008899858221411705
0	5182	0.016436202451586723
0	5218	0.006450148764997721
0	5222	0.0007186833536252379
0	5300	0.01405574195086956
0	5352	0.00939521286636591
0	5402	0.009054471738636494
0	5466	0.011613979935646057
0	5494	0.005092081613838673
0	5496	0.00036430315230973065
0	5536	0.007299891673028469
0	5462	-0.013526192866265774
0	5500	0.006961661856621504
0	5508	0.0014685365604236722
0	5400	-0.019868280738592148
0	5374	-0.00479681184515357
0	5358	-0.0029615736566483974
0	5408	0.009288040921092033
0	5406	-0.0003728560695890337
0	5418	0.0022455649450421333
0	5910	0.09241403639316559
0	6942	0.19389505684375763
0	6694	-0.04625542461872101
1	5002	-0.31324440240859985
0	4324	-0.12563775479793549
0	5326	0.1864556074142456
0	5616	0.0538339726626873
0	5608	-0.001478305784985423
0	5652	0.008096173405647278
0	5638	-0.0025655748322606087
0	5644	0.0010955302277579904
0	5622	-0.004003445617854595
0	5526	-0.017423078417778015
0	5618	0.01666606217622757
0	5746	0.02313225157558918
0	5758	0.0021628376562148333
0	5794	0.0064727249555289745
0	5754	-0.007175059523433447
0	5750	-0.000716272508725524
0	5830	0.014303593896329403
0	5838	0.0014275177381932735
0	5838	0.0
0	5886	0.00853070430457592
0	5986	0.01773175410926342
0	6016	0.005304539576172829
0	6044	0.004932993091642857
0	5992	-0.009125368669629097
0	5914	-0.013637476600706577
0	5726	-0.03277316689491272
0	5498	-0.03967241197824478
0	5152	-0.060176704078912735
0	4986	-0.02899833396077156
0	4906	-0.014136107638478279
0	4866	-0.0071432823315262794
0	4922	0.01000869832932949
0	4964	0.007479875348508358
0	5022	0.01035159733146429
0	5088	0.011821177788078785
0	5142	0.009701993316411972
0	5206	0.0115338871255517
0	5236	0.005420576315373182
0	5254	0.0032603575382381678
0	5322	0.01234433427453041
0	5382	0.010905521921813488
0	5382	0.0
0	5408	0.004742967896163464
0	5396	-0.002193730790168047
0	5424	0.005131149664521217
0	5500	0.013955538161098957
0	5496	-0.0007356277201324701
0	5420	-0.014005602337419987
0	5374	-0.008498897776007652
0	5380	0.0011117287212982774
0	5354	-0.0048325941897928715
0	5370	0.00298559432849288
0	5378	0.0014988196780905128
0	5414	0.006772858090698719
0	5992	0.10913759469985962
0	6890	0.16947659850120544
0	6436	-0.08505907654762268
1	4848	-0.29578670859336853
0	4696	-0.028365617617964745
0	5568	0.16302315890789032
0	5694	0.02345931902527809
0	5712	0.0033341976813971996
0	5740	0.005161353852599859
0	5744	0.0007338372524827719
0	5712	-0.00584489107131958
0	5726	0.002547461772337556
0	5764	0.006890132557600737
0	5764	0.0
0	5730	-0.006124654784798622
0	5748	0.0032332229893654585
0	5762	0.002508331323042512
0	5798	0.006435389630496502
0	5814	0.0028531011193990707
0	5850	0.006404022686183453
0	5862	0.002128942869603634
0	5962	0.017695356160402298
0	5992	0.005294180009514093
0	6022	0.00527877826243639
0	6022	0.0
0	6006	-0.0027948576025664806
0	5910	-0.016708243638277054
0	5668	-0.04198327288031578
0	5412	-0.044335659593343735
0	5180	-0.0401713065803051
0	5012	-0.02912890538573265
0	4948	-0.011159935966134071
0	4890	-0.010229156352579594
0	4966	0.01352666225284338
0	4982	0.0028457259759306908
0	5044	0.011008522473275661
0	5112	0.012111425399780273
0	5160	0.008578884415328503
0	5198	0.00681402487680316
0	5222	0.004317582119256258
0	5284	0.011188778094947338
0	5330	0.008322779089212418
0	5380	0.009068156592547894
0	5458	0.014179239980876446
0	5448	-0.001821228303015232
0	5470	0.004013573285192251
0	5474	0.000730976345948875
0	5520	0.008421001024544239
0	5510	-0.0018337633227929473
0	5458	-0.009553320705890656
0	5364	-0.01731101982295513
0	5370	0.0011083470890298486
0	5356	-0.002595604630187154
0	5350	-0.0011167916236445308
0	5394	0.008224094286561012
0	5410	0.003002326702699065
0	6174	0.14389753341674805
0	7014	0.15795016288757324
1	5530	-0.2767108082771301
0	3748	-0.3320332169532776
0	5232	0.278989315032959
0	5664	0.08110340684652328
0	5662	-0.00037380383582785726
0	5688	0.0048361895605921745
0	5724	0.0066664195619523525
0	5712	-0.0022120089270174503
0	5722	0.0018358054803684354
0	5754	0.005852730944752693
0	5764	0.0018223787192255259
0	5770	0.0010896807070821524
0	5780	0.0018101294990628958
0	5766	-0.002526619704440236
0	5776	0.0018000071868300438
0	5786	0.0017957404488697648
0	5820	0.006093554198741913
0	5864	0.007868289016187191
0	5892	0.004995361436158419
0	5922	0.005338901653885841
0	5952	0.0053262002766132355
0	5956	0.0007083072559908032
0	6014	0.010240353643894196
0	6012	-0.0003517699951771647
0	5942	-0.012265782803297043
0	5794	-0.025844907388091087
0	5556	-0.041454266756772995
0	5276	-0.04872389882802963
0	5018	-0.04493051394820213
0	4908	-0.019285840913653374
0	4878	-0.005325317848473787
0	4890	0.0021383767016232014
0	4930	0.007079896982759237
0	4952	0.003900893498212099
0	5028	0.013532763347029686
0	5100	0.012868938967585564
0	5164	0.011479271575808525
0	5208	0.007918511517345905
0	5268	0.010830716229975224
0	5292	0.004344153683632612
0	5306	0.002541173016652465
0	5320	0.002548234537243843
0	5350	0.0054754517041146755
0	5442	0.016835428774356842
0	5472	0.00550068449229002
0	5510	0.00698050344362855
0	5530	0.0036801688838750124
0	5506	-0.004424071870744228
0	5570	0.011823534034192562
0	5608	0.0070341709069907665
0	5516	-0.017063157632946968
0	5458	-0.010786282829940319
0	5428	-0.005596388131380081
0	5422	-0.0011233710683882236
0	5408	-0.002630886621773243
0	5402	-0.001131306984461844
0	5444	0.007938708178699017
0	5822	0.07149883359670639
0	6870	0.1975494772195816
0	6784	-0.016024645417928696
1	4518	-0.4173676073551178
0	4408	-0.020305443555116653
0	5564	0.21402651071548462
0	5722	0.029138745740056038
0	5728	0.0011013215407729149
0	5748	0.0036554159596562386
0	5758	0.0018205209635198116
0	5736	-0.003990760538727045
0	5770	0.0061479113064706326
0	5768	-0.0003605509118642658
0	5790	0.003954748157411814
0	5804	0.0025093802250921726
0	5786	-0.0032170431222766638
0	5792	0.001069569494575262
0	5796	0.0007115665357559919
0	5812	0.0028408081270754337
0	5828	0.0028357398696243763
0	5834	0.0010615335777401924
0	5888	0.009535357356071472
0	5930	0.007402533199638128
0	6000	0.012314260005950928
0	6028	0.004911763593554497
0	6014	-0.0024477236438542604
0	5990	-0.00418181624263525
0	5838	-0.026397747918963432
0	5640	-0.03430115804076195
0	5378	-0.0453261062502861
0	5138	-0.04153590649366379
0	4970	-0.029190314933657646
0	4892	-0.013703443109989166
0	4872	-0.003553071292117238
0	4888	0.0028365105390548706
0	4946	0.010253267362713814
0	5016	0.012419862672686577
0	5092	0.013540960848331451
0	5160	0.012161534279584885
0	5190	0.005384256597608328
0	5214	0.0043220920488238335
0	5264	0.009032662026584148
0	5296	0.0057985722087323666
0	5296	0.0
0	5348	0.009477982297539711
0	5380	0.005848808214068413
0	5390	0.001832284964621067
0	5426	0.006612461060285568
0	5436	0.0018409652402624488
0	5444	0.001476178178563714
0	5476	0.0059186918660998344
0	5566	0.016683144494891167
0	5582	0.002971805166453123
0	5602	0.003722777124494314
0	5594	-0.00149279716424644
0	5626	0.005987351760268211
0	5602	-0.0045014070346951485
0	5516	-0.016169263049960136
0	5434	-0.015448380261659622
0	5424	-0.0018863891018554568
0	5434	0.0018858436960726976
0	5414	-0.003764682449400425
0	5420	0.0011262670159339905
0	5436	0.002993489382788539
0	6210	0.14430247247219086
0	7128	0.16975480318069458
1	5856	-0.2320941984653473
0	3246	-0.4738103449344635
0	4742	0.2746465802192688
0	5600	0.15792185068130493
0	5722	0.022398745641112328
0	5738	0.0029284365009516478
0	5746	0.0014599960995838046
0	5754	0.001456010271795094
0	5742	-0.0021779637318104506
0	5764	0.003983438480645418
0	5758	-0.0010838803136721253
0	5774	0.0028839570004493
0	5776	0.0003597424365580082
0	5792	0.0028720845002681017
0	5822	0.005373968277126551
0	5822	0.0
0	5820	-0.0003569813852664083
0	5834	0.002495336113497615
0	5878	0.007831689901649952
0	5908	0.005330806132405996
0	5924	0.002838355489075184
0	5972	0.008498884737491608
0	6012	0.007063393946737051
0	6032	0.0035197222605347633
0	6020	-0.002104328013956547
0	5954	-0.011534294113516808
0	5774	-0.031358517706394196
0	5460	-0.05459097400307655
0	5198	-0.0455440953373909
0	5002	-0.034272126853466034
0	4918	-0.014872345142066479
0	4904	-0.0024925225879997015
0	4918	0.0024682360235601664
0	4992	0.013032911345362663
0	5054	0.010958581231534481
0	5102	0.008517585694789886
0	5152	0.008905988186597824
0	5182	0.005362505558878183
0	5204	0.003945952281355858
0	5264	0.010796415619552135
0	5252	-0.0021657783072441816
0	5268	0.002896521706134081
0	5316	0.008716179057955742
0	5330	0.0025493171997368336
0	5356	0.0047477600164711475
0	5390	0.006226269993931055
0	5406	0.002937756245955825
0	5408	0.00036815236671827734
0	5428	0.0036911717616021633
0	5444	0.0029611350037157536
0	5442	-0.0003712044272106141
0	5448	0.001116944127716124
0	5482	0.006349996663630009
0	5508	0.004871955141425133
0	5568	0.01127989124506712
0	5594	0.004901837557554245
0	5610	0.0030233555007725954
0	5630	0.00378310214728117
0	5638	0.0015116205904632807
0	5522	-0.02185792289674282
0	5444	-0.01464972086250782
0	5398	-0.008611221797764301
0	5398	0.0
0	5396	-0.000372139154933393
0	5420	0.004454508423805237
0	5458	0.007037037052214146
0	5718	0.048042573034763336
0	6772	0.19408060610294342
0	6928	0.028447773307561874
1	5410	-0.2739478647708893
0	4054	-0.24449759721755981
0	5360	0.23719003796577454
0	5686	0.059173744171857834
0	5746	0.010866547003388405
0	5766	0.0036131085362285376
0	5792	0.00468547223135829
0	5780	-0.0021573163103312254
0	5792	0.002152492292225361
0	5796	0.0007158537628129125
0	5774	-0.0039285714738070965
0	5792	0.0032079843804240227
0	5780	-0.0021342188119888306
0	5796	0.0028400348965078592
0	5770	-0.004606498405337334
0	5790	0.0035379864275455475
0	5808	0.003180024679750204
0	5814	0.0010586740681901574
0	5828	0.0024672793224453926
0	5880	0.009153532795608044
0	5920	0.00703119533136487
0	6000	0.014029672369360924
0	6034	0.005943293683230877
0	6026	-0.0013932590372860432
0	5980	-0.00798213854432106
0	5840	-0.02421167865395546
0	5590	-0.04313071444630623
0	5308	-0.04861454293131828
0	5070	-0.04112618789076805
0	4938	-0.023035308346152306
0	4866	-0.012711863964796066
0	4860	-0.0010627243900671601
0	4880	0.00352563732303679
0	4894	0.002474926644936204
0	4986	0.016340062022209167
0	5054	0.012132025323808193
0	5132	0.013975322246551514
0	5168	0.006475674454122782
0	5228	0.010832540690898895
0	5266	0.006883974652737379
0	5270	0.0007269555353559554
0	5318	0.008750182576477528
0	5356	0.006947237998247147
0	5372	0.002932730596512556
0	5390	0.003307891311123967
0	5390	0.0
0	5434	0.008124777115881443
0	5474	0.007403202820569277
0	5520	0.008531578816473484
0	5510	-0.0018582293996587396
0	5548	0.00707749230787158
0	5552	0.0007467237301170826
0	5578	0.004867273382842541
0	5628	0.009386850520968437
0	5606	-0.0041405269876122475
0	5650	0.008300529792904854
0	5600	-0.009443703107535839
0	5516	-0.015864422544836998
0	5428	-0.016598137095570564
0	5396	-0.006022131070494652
0	5386	-0.0018765246495604515
0	5410	0.004489057697355747
0	5438	0.005219336599111557
0	5482	0.008173475973308086
0	6174	0.12808015942573547
0	7086	0.1675710678100586
0	6300	-0.14264453947544098
1	4442	-0.3348270654678345
0	4532	0.016289789229631424
0	5498	0.17558102309703827
0	5680	0.03303404897451401
0	5710	0.005431699566543102
0	5710	0.0
0	5696	-0.0025234317872673273
0	5722	0.004677268676459789
0	5714	-0.0014363001100718975
0	5718	0.0007167602889239788
0	5704	-0.0025044125504791737
0	5706	0.0003572832210920751
0	5718	0.0021413275972008705
0	5728	0.0017822347581386566
0	5726	-0.0003560661862138659
0	5750	0.004268386401236057
0	5812	0.011015432886779308
0	5808	-0.0007098995265550911
0	5862	0.009572205133736134
0	5914	0.00920614693313837
0	5966	0.009189118631184101
0	5988	0.003877426264807582
0	6018	0.005270061548799276
0	6032	0.0024504370521754026
0	6002	-0.0052312202751636505
0	5842	-0.027804166078567505
0	5514	-0.05686546489596367
0	5218	-0.051308125257492065
0	5028	-0.03311719745397568
0	4904	-0.021874889731407166
0	4896	-0.0014229642692953348
0	4894	-0.00035478605423122644
0	4922	0.004956395365297794
0	4972	0.008880889043211937
0	5042	0.012485581450164318
0	5066	0.004297840408980846
0	5116	0.008988386951386929
0	5210	0.016957102343440056
0	5180	-0.0054285540245473385
0	5272	0.016701361164450645
0	5332	0.010921667329967022
0	5306	-0.0047434293664991856
0	5360	0.009875761345028877
0	5386	0.0047653960064053535
0	5414	0.005142710171639919
0	5428	0.002576276194304228
0	5458	0.005531517323106527
0	5548	0.016630737110972404
0	5542	-0.0011104941368103027
0	5566	0.004450763110071421
0	5584	0.003345268778502941
0	5572	-0.0022354694083333015
0	5632	0.01120629534125328
0	5614	-0.003369987243786454
0	5516	-0.018395693972706795
0	5468	-0.009037619456648827
0	5434	-0.006416708696633577
0	5408	-0.004909365437924862
0	5428	0.0037719241809099913
0	5440	0.0022574779577553272
0	5568	0.023999100551009178
0	6382	0.15198098123073578
0	7104	0.13356684148311615
1	6174	-0.16976173222064972
0	3336	-0.514285683631897
0	4572	0.22631283104419708
0	5530	0.17594122886657715
0	5686	0.028577709570527077
0	5706	0.003653190564364195
0	5718	0.002184916753321886
0	5752	0.006173885427415371
0	5734	-0.0032602394931018353
0	5740	0.0010839455062523484
0	5762	0.003965392708778381
0	5768	0.001079033245332539
0	5758	-0.0017945803701877594
0	5770	0.0021492536179721355
0	5788	0.0032178866676986217
0	5808	0.003570323344320059
0	5812	0.0007129362202249467
0	5834	0.003915426786988974
0	5866	0.00568673200905323
0	5902	0.006386451423168182
0	5918	0.002833898179233074
0	5982	0.011315283365547657
0	6018	0.006347415037453175
0	6046	0.00492097157984972
0	6012	-0.005954117979854345
0	5910	-0.01779959723353386
0	5724	-0.032367341220378876
0	5388	-0.05837387219071388
0	5152	-0.0410434789955616
0	4980	-0.030127868056297302
0	4884	-0.017026709392666817
0	4866	-0.0032170431222766638
0	4862	-0.0007084410754032433
0	4930	0.012022914364933968
0	4954	0.004258439876139164
0	5020	0.01176163088530302
0	5100	0.014314855448901653
0	5156	0.010057471692562103
0	5182	0.004686261061578989
0	5246	0.011573795229196548
0	5286	0.007255226839333773
0	5326	0.007276167161762714
0	5368	0.007660506293177605
0	5370	0.0003656530170701444
0	5398	0.005131651181727648
0	5404	0.0011022657854482532
0	5396	-0.0014733326388522983
0	5432	0.006646972149610519
0	5426	-0.0011105763260275126
0	5460	0.006310397759079933
0	5436	-0.00446661189198494
0	5468	0.005973344203084707
0	5528	0.01123595517128706
0	5556	0.005259532947093248
0	5600	0.00829041562974453
0	5598	-0.0003778147220145911
0	5574	-0.0045427014119923115
0	5658	0.015914516523480415
0	5630	-0.0052958084270358086
0	5522	-0.020365318283438683
0	5456	-0.012403217144310474
0	5434	-0.004119644407182932
0	5414	-0.0037319001276046038
0	5432	0.0033472180366516113
0	5446	0.002595315920189023
0	5572	0.02328704670071602
0	6676	0.2033473700284958
0	6938	0.04779568314552307
1	5574	-0.24616198241710663
0	3458	-0.3809775412082672
0	5056	0.29083454608917236
0	5686	0.11481963098049164
0	5722	0.006546803750097752
0	5730	0.001451730029657483
0	5766	0.00651859026402235
0	5756	-0.0018067065393552184
0	5736	-0.0036057692486792803
0	5744	0.0014393667224794626
0	5790	0.00826090108603239
0	5778	-0.0021503320895135403
0	5772	-0.0010731277288869023
0	5746	-0.004640923347324133
0	5748	0.0003564045764505863
0	5768	0.00355939450673759
0	5786	0.003199431113898754
0	5814	0.004971414338797331
0	5874	0.010639430023729801
0	5900	0.004602258559316397
0	5936	0.006363272201269865
0	6016	0.01411515660583973
0	6014	-0.00035185663728043437
0	6040	0.004559217020869255
0	6034	-0.001048413454554975
0	5954	-0.013928546570241451
0	5678	-0.04790835082530975
0	5350	-0.056858234107494354
0	5072	-0.04825271666049957
0	4908	-0.02873227559030056
0	4854	-0.009574128314852715
0	4836	-0.0032050139270722866
0	4860	0.004238685127347708
0	4950	0.015913430601358414
0	5008	0.010300002060830593
0	5070	0.011057080700993538
0	5080	0.0017904248088598251
0	5140	0.010786711238324642
0	5210	0.012631122954189777
0	5268	0.010499004274606705
0	5304	0.00653539365157485
0	5312	0.001456593512557447
0	5358	0.008399167098104954
0	5384	0.004759347997605801
0	5386	0.00036691411514766514
0	5422	0.006619107443839312
0	5448	0.0047906250692903996
0	5432	-0.002954209689050913
0	5448	0.002961171558126807
0	5460	0.002226730575785041
0	5478	0.0033492110669612885
0	5486	0.0014927786542102695
0	5530	0.008237437345087528
0	5612	0.015398096293210983
0	5628	0.0030125773046165705
0	5620	-0.0015101368771865964
0	5664	0.008323244750499725
0	5626	-0.007188891526311636
0	5538	-0.016619034111499786
0	5432	-0.01995982974767685
0	5384	-0.009008783847093582
0	5384	0.0
0	5376	-0.0014914057683199644
0	5396	0.0037165971007198095
0	5394	-0.00037063576746731997
0	5944	0.1016823798418045
0	6990	0.19234541058540344
0	6458	-0.09669563174247742
1	4810	-0.2971653938293457
0	4610	-0.036150675266981125
0	5570	0.17421391606330872
0	5702	0.023915931582450867
0	5706	0.0007230222108773887
0	5706	0.0
0	5732	0.004680749028921127
0	5704	-0.005030361469835043
0	5726	0.003945763688534498
0	5726	0.0
0	5754	0.005004766397178173
0	5770	0.0028546620160341263
0	5788	0.003205584827810526
0	5788	0.0
0	5798	0.0017744338838383555
0	5826	0.004960551857948303
0	5838	0.002123267622664571
0	5850	0.0021206410601735115
0	5908	0.010235896334052086
0	5974	0.01163104921579361
0	6008	0.005979528650641441
0	6036	0.0049107871018350124
0	6050	0.002446753904223442
0	6038	-0.002089112065732479
0	5944	-0.016302838921546936
0	5746	-0.034227631986141205
0	5504	-0.04174957051873207
0	5226	-0.04792993143200874
0	4992	-0.04051106050610542
0	4910	-0.014361776411533356
0	4882	-0.0049487450160086155
0	4842	-0.007066638674587011
0	4886	0.007762696593999863
0	4972	0.015233821235597134
0	5040	0.012097491882741451
0	5086	0.00821604672819376
0	5162	0.013624629937112331
0	5190	0.00503675639629364
0	5260	0.012630819343030453
0	5286	0.004704633262008429
0	5308	0.003991436678916216
0	5326	0.003274553222581744
0	5354	0.0051075005903840065
0	5386	0.00585258798673749
0	5380	-0.001100056222639978
0	5404	0.004411494359374046
0	5448	0.008108706213533878
0	5430	-0.003325164085254073
0	5474	0.008149255067110062
0	5486	0.0022284951992332935
0	5500	0.002607788657769561
0	5518	0.003363480092957616
0	5604	0.01612197607755661
0	5616	0.002255865139886737
0	5632	0.0030157952569425106
0	5620	-0.0022662889678031206
0	5630	0.0018900734139606357
0	5676	0.008687441237270832
0	5642	-0.006403013132512569
0	5502	-0.026258205994963646
0	5490	-0.0022424038033932447
0	5452	-0.0070741549134254456
0	5454	0.0003709198790602386
0	5454	0.0
0	5456	0.00036852771881967783
0	5680	0.0411699116230011
0	6714	0.18935418128967285
0	6916	0.03664465621113777
1	5394	-0.27325284481048584
0	3458	-0.3473019599914551
0	5070	0.29237502813339233
0	5662	0.1075281873345375
0	5698	0.006525600794702768
0	5724	0.004703158047050238
0	5718	-0.0010831367690116167
0	5732	0.0025221891701221466
0	5730	-0.0003596044552978128
0	5732	0.0003589976695366204
0	5722	-0.001791750779375434
0	5740	0.003220381448045373
0	5754	0.002500952687114477
0	5784	0.005351090803742409
0	5792	0.001424704329110682
0	5800	0.0014231160748749971
0	5826	0.004620086867362261
0	5874	0.008519601076841354
0	5884	0.0017722536576911807
0	5936	0.00920191127806902
0	5986	0.008834443055093288
0	6020	0.005995274521410465
0	6060	0.0070318542420864105
0	6042	-0.0031538004986941814
0	5982	-0.010476566851139069
0	5754	-0.03968898952007294
0	5454	-0.05213160440325737
0	5220	-0.04066311940550804
0	4992	-0.03972633183002472
0	4896	-0.016895854845643044
0	4828	-0.012111425399780273
0	4854	0.004646452609449625
0	4884	0.005317074712365866
0	4948	0.011355571448802948
0	5032	0.014967392198741436
0	5082	0.00894454400986433
0	5152	0.012570484541356564
0	5182	0.005405664909631014
0	5220	0.006869870238006115
0	5244	0.004352241288870573
0	5292	0.008730235509574413
0	5302	0.001823553116992116
0	5308	0.0010970525909215212
0	5336	0.005133532918989658
0	5326	-0.0018384380964562297
0	5362	0.0066373310983181
0	5358	-0.0007394717540591955
0	5386	0.005191273987293243
0	5406	0.0037192695308476686
0	5472	0.012310064397752285
0	5506	0.006359895225614309
0	5562	0.010506566613912582
0	5578	0.003010499058291316
0	5536	-0.007926522754132748
0	5628	0.017418304458260536
0	5630	0.00037950664409436285
0	5504	-0.023927684873342514
0	5430	-0.014048321172595024
0	5406	-0.004550165496766567
0	5412	0.0011345728999003768
0	5412	0.0
0	5430	0.0033802816178649664
0	5764	0.062497660517692566
0	6726	0.17902560532093048
0	6818	0.01693417876958847
1	4868	-0.3550403416156769
0	4190	-0.12360533326864243
0	5404	0.2226243019104004
0	5682	0.05091077834367752
0	5708	0.004748049192130566
0	5722	0.0025494410656392574
0	5734	0.0021795460488647223
0	5726	-0.0014492403715848923
0	5746	0.003613978624343872
0	5718	-0.005047106184065342
0	5732	0.0025176233612000942
0	5762	0.005382968112826347
0	5780	0.0032219954300671816
0	5794	0.0025001189205795527
0	5802	0.0014253475237637758
0	5820	0.0032007587142288685
0	5824	0.0007099583745002747
0	5838	0.0024810084141790867
0	5888	0.008847156539559364
0	5932	0.007769367657601833
0	5976	0.007755490485578775
0	6038	0.010906021110713482
0	6034	-0.0007014180300757289
0	6042	0.0013979008654132485
0	6046	0.0006963707273826003
0	5938	-0.018733087927103043
0	5714	-0.0387360081076622
0	5436	-0.04799557849764824
0	5194	-0.04185933992266655
0	4998	-0.034204740077257156
0	4870	-0.022576814517378807
0	4870	0.0
0	4886	0.002810831181704998
0	4942	0.009867841377854347
0	5000	0.010264880955219269
0	5054	0.009597042575478554
0	5126	0.01284689549356699
0	5156	0.005372300278395414
0	5202	0.00826565083116293
0	5252	0.009013772942125797
0	5294	0.007592831738293171
0	5310	0.002900162013247609
0	5322	0.002181077841669321
0	5328	0.0010935734026134014
0	5378	0.00913898553699255
0	5390	0.002199037466198206
0	5416	0.004777128342539072
0	5456	0.0073678395710885525
0	5540	0.01550883799791336
0	5564	0.004440607037395239
0	5582	0.0033380314707756042
0	5582	0.0
0	5624	0.007829880341887474
0	5658	0.006354665383696556
0	5534	-0.023231415078043938
0	5434	-0.018795108422636986
0	5420	-0.002639650134369731
0	5388	-0.006044655106961727
0	5408	0.00377905135974288
0	5402	-0.0011321894126012921
0	5454	0.009787437506020069
0	6080	0.1173955500125885
0	7162	0.20138725638389587
1	6174	-0.18133097887039185
0	3272	-0.5286295413970947
0	4756	0.27319252490997314
0	5644	0.16377317905426025
0	5726	0.015075192786753178
0	5750	0.004396893084049225
0	5726	-0.004382227547466755
0	5728	0.00036413510679267347
0	5752	0.004358142614364624
0	5762	0.0018110474338755012
0	5762	0.0
0	5802	0.007206168957054615
0	5782	-0.0035939335357397795
0	5796	0.0025098600890487432
0	5770	-0.004650608170777559
0	5780	0.001785352942533791
0	5800	0.003565613180398941
0	5812	0.002136371796950698
0	5854	0.007467109244316816
0	5862	0.0014200174482539296
0	5948	0.015243723057210445
0	5992	0.007785772904753685
0	6016	0.004235344007611275
0	6046	0.005276117008179426
0	6038	-0.0014018199872225523
0	5996	-0.007331719622015953
0	5844	-0.026443367823958397
0	5596	-0.043034136295318604
0	5308	-0.04993411526083946
0	5078	-0.040056660771369934
0	4934	-0.025386080145835876
0	4876	-0.010300002060830593
0	4836	-0.007036637514829636
0	4870	0.005978337023407221
0	4944	0.013070971705019474
0	5030	0.015260853804647923
0	5060	0.005346322897821665
0	5136	0.013597815297544003
0	5166	0.005386576522141695
0	5232	0.011892177164554596
0	5250	0.003253678325563669
0	5280	0.005439578555524349
0	5320	0.007275725714862347
0	5336	0.002918465295806527
0	5340	0.0007316627306863666
0	5340	0.0
0	5370	0.0055167339742183685
0	5406	0.006637576036155224
0	5456	0.009241916239261627
0	5476	0.0037058540619909763
0	5490	0.002600297098979354
0	5510	0.003725273534655571
0	5602	0.0171876959502697
0	5620	0.0033715020399540663
0	5500	-0.0225366223603487
0	5434	-0.012437029741704464
0	5424	-0.00189107412006706
0	5424	0.0
0	5446	0.004175946582108736
0	5452	0.0011379009811207652
0	5470	0.003405650844797492
0	6318	0.15990345180034637
0	7174	0.15996213257312775
1	5962	-0.2232373058795929
0	3248	-0.49656030535697937
0	4754	0.27842140197753906
0	5630	0.16222622990608215
0	5710	0.014763234183192253
0	5724	0.002574475947767496
0	5732	0.001466114423237741
0	5726	-0.001096237450838089
0	5726	0.0
0	5728	0.0003633720916695893
0	5762	0.006162099540233612
0	5762	0.0
0	5768	0.001081886817701161
0	5770	0.0003597036120481789
0	5814	0.007894547656178474
0	5804	-0.0017898478545248508
0	5828	0.004286734852939844
0	5832	0.0007129616569727659
0	5892	0.010672738775610924
0	5930	0.006744125857949257
0	5964	0.006022531073540449
0	5986	0.003889033105224371
0	6030	0.007755855098366737
0	6016	-0.0024591602850705385
0	6034	0.003150855889543891
0	5918	-0.020233498886227608
0	5704	-0.037225160747766495
0	5398	-0.05315083637833595
0	5100	-0.05178286135196686
0	4920	-0.03150046989321709
0	4838	-0.014541412703692913
0	4820	-0.003213367657735944
0	4846	0.004598514176905155
0	4928	0.014495143666863441
0	4988	0.01065025757998228
0	5050	0.011052480898797512
0	5094	0.007875237613916397
0	5162	0.01221732422709465
0	5232	0.012619282118976116
0	5288	0.010125483386218548
0	5300	0.0021755159832537174
0	5342	0.007635623216629028
0	5338	-0.0007290578214451671
0	5376	0.0069441902451217175
0	5386	0.0018318148795515299
0	5430	0.008081105537712574
0	5462	0.0058906543999910355
0	5518	0.010331849567592144
0	5552	0.006285045295953751
0	5570	0.003334362292662263
0	5564	-0.0011139302514493465
0	5612	0.008933556266129017
0	5606	-0.0011192916426807642
0	5514	-0.017207840457558632
0	5444	-0.013134029693901539
0	5444	0.0
0	5428	-0.0030221750494092703
0	5416	-0.002270577009767294
0	5438	0.004162251949310303
0	5456	0.00339823542162776
0	6166	0.13359089195728302
0	7166	0.18660198152065277
0	6450	-0.13168542087078094
1	4234	-0.4035939872264862
0	4498	0.04828502982854843
0	5592	0.20068974792957306
0	5752	0.029254378750920296
0	5742	-0.0018210954731330276
0	5754	0.0021776477806270123
0	5750	-0.0007235977682285011
0	5748	-0.00036079372512176633
0	5766	0.003238419769331813
0	5756	-0.0017945589497685432
0	5786	0.0053702485747635365
0	5814	0.004999999888241291
0	5798	-0.0028498824685811996
0	5788	-0.0017772933933883905
0	5796	0.0014190939255058765
0	5814	0.00318772136233747
0	5850	0.00636559771373868
0	5850	0.0
0	5876	0.004582089837640524
0	5930	0.009501911699771881
0	5984	0.009483888745307922
0	5992	0.0014011653838679194
0	5994	0.0003491742245387286
0	6008	0.002436421113088727
0	5916	-0.015957077965140343
0	5732	-0.03182216361165047
0	5482	-0.0431634820997715
0	5218	-0.04557381570339203
0	4988	-0.039922237396240234
0	4900	-0.015469535253942013
0	4868	-0.005676846019923687
0	4836	-0.005655641667544842
0	4918	0.014463781379163265
0	4980	0.010979540646076202
0	5046	0.011741404421627522
0	5092	0.008217318914830685
0	5152	0.010760659351944923
0	5172	0.0035997554659843445
0	5224	0.00939181912690401
0	5250	0.004711282905191183
0	5302	0.009451452642679214
0	5322	0.003645865013822913
0	5350	0.005119516514241695
0	5386	0.00660025654360652
0	5402	0.0029406719841063023
0	5460	0.010685729794204235
0	5516	0.010339734144508839
0	5536	0.003700368804857135
0	5556	0.003707548603415489
0	5540	-0.0029719152953475714
0	5610	0.013033601455390453
0	5608	-0.00037325502489693463
0	5492	-0.021700629964470863
0	5444	-0.009007768705487251
0	5422	-0.004143178462982178
0	5416	-0.0011334726586937904
0	5414	-0.00037857756251469254
0	5392	-0.00416614068672061
0	5726	0.06318019330501556
0	6964	0.23309817910194397
0	6856	-0.02007484622299671
1	5152	-0.31288254261016846
0	3854	-0.23787416517734528
0	5324	0.2711576819419861
0	5696	0.0684746578335762
0	5720	0.004400170873850584
0	5742	0.004018069244921207
0	5736	-0.0010919150663539767
0	5718	-0.003264575731009245
0	5770	0.00940291490405798
0	5758	-0.00216312357224524
0	5764	0.0010786064667627215
0	5762	-0.00035858573392033577
0	5764	0.00035770496469922364
0	5774	0.00178450345993042
0	5778	0.0007122253300622106
0	5800	0.003909860271960497
0	5810	0.0017742241034284234
0	5856	0.008148226886987686
0	5900	0.007780174724757671
0	5944	0.007763701491057873
0	5992	0.00845288671553135
0	6020	0.00491976086050272
0	6046	0.004554266110062599
0	6016	-0.005236515775322914
0	5972	-0.007653771433979273
0	5826	-0.025314992293715477
0	5546	-0.04843396693468094
0	5284	-0.04528014734387398
0	5006	-0.04816799610853195
0	4880	-0.022081244736909866
0	4820	-0.010637668892741203
0	4842	0.003908146638423204
0	4876	0.00600473303347826
0	4952	0.01345783844590187
0	5016	0.011382903903722763
0	5074	0.010358992964029312
0	5152	0.013986682519316673
0	5178	0.004678559023886919
0	5220	0.00758223095908761
0	5270	0.00905644055455923
0	5284	0.002543296664953232
0	5310	0.004737033974379301
0	5348	0.006942414212971926
0	5364	0.002930545946583152
0	5388	0.004406849853694439
0	5430	0.007730440236628056
0	5456	0.004796398803591728
0	5510	0.009983484633266926
0	5548	0.007040427066385746
0	5564	0.002970848698168993
0	5592	0.005211241543292999
0	5566	-0.00485104788094759
0	5460	-0.01983335055410862
0	5414	-0.008638497442007065
0	5430	0.003016060683876276
0	5422	-0.001513183582574129
0	5434	0.0022755716927349567
0	5398	-0.006831551901996136
0	5660	0.04968268796801567
0	6642	0.18544864654541016
0	6946	0.056779976934194565
1	5462	-0.27355509996414185
0	4008	-0.26700782775878906
0	5286	0.23594136536121368
0	5652	0.06743146479129791
0	5684	0.005872709210962057
0	5692	0.0014627189375460148
0	5684	-0.0014579207636415958
0	5694	0.0018168165115639567
0	5718	0.004347878973931074
0	5702	-0.0028907652013003826
0	5752	0.009010957553982735
0	5764	0.002156902803108096
0	5730	-0.006096030585467815
0	5746	0.0028624588157981634
0	5754	0.0014281803742051125
0	5780	0.004632654134184122
0	5814	0.006046451162546873
0	5832	0.0031953041907399893
0	5898	0.011696458794176579
0	5902	0.0007074804161675274
0	5928	0.004590233322232962
0	5950	0.003875786904245615
0	6002	0.009134666062891483
0	5988	-0.0024508945643901825
0	5978	-0.0017449571751058102
0	5848	-0.022611316293478012
0	5566	-0.04893171414732933
0	5282	-0.0492309108376503
0	5080	-0.035093002021312714
0	4930	-0.026297027245163918
0	4882	-0.008515369147062302
0	4858	-0.004272338002920151
0	4880	0.0038966559804975986
0	4944	0.011362963356077671
0	5004	0.010697602294385433
0	5080	0.013605278916656971
0	5108	0.005030843894928694
0	5196	0.015865955501794815
0	5256	0.010850171558558941
0	5302	0.008341695182025433
0	5348	0.00836191326379776
0	5330	-0.00328008271753788
0	5366	0.006577504798769951
0	5368	0.00036622880725190043
0	5390	0.00403783330693841
0	5464	0.013612115755677223
0	5538	0.013638542033731937
0	5550	0.0022154117468744516
0	5540	-0.0018493859097361565
0	5540	0.0
0	5582	0.007802050560712814
0	5580	-0.0003723239351529628
0	5472	-0.020151760429143906
0	5420	-0.009734789840877056
0	5404	-0.0030059742275625467
0	5366	-0.007164944428950548
0	5394	0.005295475013554096
0	5396	0.0003786587913054973
0	5458	0.011729982681572437
0	6328	0.16420669853687286
0	7126	0.14930400252342224
1	5812	-0.24245330691337585
0	3364	-0.44905897974967957
0	4910	0.28625035285949707
0	5650	0.1370438039302826
0	5700	0.009222936816513538
0	5704	0.0007350328960455954
0	5716	0.002197077963501215
0	5736	0.0036502124276012182
0	5732	-0.0007279168348759413
0	5746	0.002541080815717578
0	5772	0.00470781372860074
0	5794	0.003972935955971479
0	5780	-0.002521734917536378
0	5766	-0.0025155122857540846
0	5798	0.005736823193728924
0	5820	0.003936209715902805
0	5788	-0.005715782754123211
0	5834	0.008204811252653599
0	5870	0.006409951951354742
0	5912	0.007463659159839153
0	5964	0.009222692809998989
0	6018	0.009555717930197716
0	6028	0.0017638965509831905
0	6046	0.0031637041829526424
0	6016	-0.005253082141280174
0	5858	-0.027561664581298828
0	5620	-0.041405223309993744
0	5330	-0.05038629472255707
0	5114	-0.03755694255232811
0	4970	-0.025215381756424904
0	4914	-0.009930956177413464
0	4896	-0.003209128277376294
0	4920	0.004240232519805431
0	4960	0.007066638674587011
0	5038	0.013836165890097618
0	5088	0.008904190734028816
0	5154	0.011796669103205204
0	5196	0.007532190997153521
0	5236	0.00719674676656723
0	5292	0.010105506516993046
0	5326	0.006152287125587463
0	5334	0.0014515017392113805
0	5348	0.002547214273363352
0	5402	0.009850779548287392
0	5402	0.0
0	5420	0.00329883792437613
0	5480	0.011023063212633133
0	5530	0.009203244000673294
0	5520	-0.0018440884305164218
0	5532	0.002217677189037204
0	5538	0.0011114404769614339
0	5590	0.009657887741923332
0	5520	-0.013035544194281101
0	5414	-0.019801979884505272
0	5340	-0.01387864351272583
0	5348	0.001506761647760868
0	5358	0.0018895019311457872
0	5364	0.0011355751194059849
0	5398	0.006433545611798763
0	5636	0.044954292476177216
0	6946	0.2464042454957962
0	6674	-0.050518181174993515
1	4124	-0.46845147013664246
0	4634	0.09414921700954437
0	5580	0.17498858273029327
0	5688	0.019911015406250954
0	5698	0.0018368397140875459
0	5704	0.001098445151001215
0	5724	0.0036501677241176367
0	5724	0.0
0	5732	0.0014519407413899899
0	5770	0.006879820488393307
0	5776	0.0010834366548806429
0	5780	0.0007204351131804287
0	5770	-0.0017970098415389657
0	5764	-0.0010758342687040567
0	5818	0.009662643074989319
0	5808	-0.001785778091289103
0	5856	0.008557572960853577
0	5874	0.003202694933861494
0	5924	0.008878367021679878
0	5988	0.011338404379785061
0	6028	0.0070698861964046955
0	6064	0.0063439104706048965
0	6068	0.0007021978963166475
0	6076	0.0013984384713694453
0	5964	-0.019495440647006035
0	5812	-0.02636539191007614
0	5520	-0.050518445670604706
0	5226	-0.05082870274782181
0	5028	-0.034312646836042404
0	4942	-0.015070445835590363
0	4880	-0.010975782759487629
0	4910	0.005287275183945894
0	4938	0.004926801659166813
0	4990	0.009184358641505241
0	5038	0.008512851782143116
0	5102	0.011394929140806198
0	5168	0.01179315522313118
0	5206	0.006812559440732002
0	5254	0.008632059209048748
0	5292	0.006853350438177586
0	5336	0.007958327420055866
0	5358	0.003989747725427151
0	5374	0.002909055445343256
0	5372	-0.00036450676270760596
0	5406	0.006211407482624054
0	5406	0.0
0	5442	0.006609547417610884
0	5496	0.009939503856003284
0	5562	0.012176522985100746
0	5588	0.004807514138519764
0	5562	-0.0048193964175879955
0	5640	0.014499937184154987
0	5628	-0.002236636122688651
0	5498	-0.02429664321243763
0	5388	-0.020632995292544365
0	5390	0.00037650129524990916
0	5384	-0.0011325028026476502
0	5406	0.004156066570430994
0	5410	0.0007547929417341948
0	5454	0.00828282069414854
0	6320	0.16249890625476837
0	7166	0.1573290079832077
1	6016	-0.21091370284557343
0	3268	-0.5006923675537109
0	4934	0.30675750970840454
0	5638	0.12970902025699615
0	5696	0.01065119169652462
0	5734	0.006955884862691164
0	5734	0.0
0	5740	0.001091583864763379
0	5748	0.0014515017392113805
0	5772	0.0043436819687485695
0	5754	-0.0032496447674930096
0	5766	0.002161487005650997
0	5790	0.004312771838158369
0	5772	-0.0032271561212837696
0	5762	-0.0017889514565467834
0	5752	-0.0017855443293228745
0	5796	0.007844441570341587
0	5790	-0.0010682111606001854
0	5858	0.01209189835935831
0	5922	0.011360677890479565
0	5966	0.007797454949468374
0	6000	0.006013300269842148
0	6024	0.004232157487422228
0	6010	-0.002459563547745347
0	6024	0.0024506656918674707
0	5868	-0.027205821126699448
0	5654	-0.03722084313631058
0	5346	-0.05349450930953026
0	5102	-0.04240528494119644
0	4938	-0.0287044495344162
0	4846	-0.016314564272761345
0	4812	-0.00607128394767642
0	4882	0.01238587312400341
0	4934	0.009203757159411907
0	5002	0.01208588108420372
0	5054	0.009280300699174404
0	5102	0.008601225912570953
0	5154	0.009353303350508213
0	5214	0.010830325074493885
0	5270	0.010140885598957539
0	5286	0.0029062023386359215
0	5302	0.0029144606087356806
0	5310	0.0014613473322242498
0	5342	0.005862523801624775
0	5382	0.007347448263317347
0	5384	0.0003682292008306831
0	5422	0.007012191228568554
0	5430	0.0014796548057347536
0	5452	0.004078101832419634
0	5478	0.004831695929169655
0	5534	0.010435430333018303
0	5584	0.009342418983578682
0	5594	0.0018733373144641519
0	5578	-0.003005409613251686
0	5632	0.01017076801508665
0	5642	0.0018881225259974599
0	5510	-0.024958716705441475
0	5432	-0.014761731028556824
0	5394	-0.00718771293759346
0	5384	-0.0018880274146795273
0	5402	0.003388937097042799
0	5438	0.006754306145012379
0	5416	-0.004111534915864468
0	6036	0.11548634618520737
0	7096	0.19610260426998138
0	6550	-0.09972359985113144
1	4796	-0.31746605038642883
0	4044	-0.13636034727096558
0	5526	0.2705465853214264
0	5732	0.03753507509827614
0	5718	-0.002543789567425847
0	5742	0.004349402152001858
0	5744	0.0003614893357735127
0	5758	0.002523826202377677
0	5758	0.0
0	5764	0.0010765164624899626
0	5818	0.009666678495705128
0	5828	0.0017859056824818254
0	5792	-0.006414063740521669
0	5778	-0.0024893314111977816
0	5834	0.009939651936292648
0	5794	-0.007087172009050846
0	5848	0.009555830620229244
0	5894	0.008127974346280098
0	5916	0.003880070522427559
0	5916	0.0
0	5976	0.010547410696744919
0	5994	0.0031556065659970045
0	6030	0.006290553603321314
0	5984	-0.008008263073861599
0	5844	-0.02428840659558773
0	5578	-0.04603032022714615
0	5310	-0.04633898660540581
0	5070	-0.04152297228574753
0	4940	-0.022617612034082413
0	4864	-0.01339002512395382
0	4834	-0.0053383950144052505
0	4896	0.011030197143554688
0	4952	0.009912673383951187
0	4988	0.006394088733941317
0	5072	0.014985550194978714
0	5114	0.007521669380366802
0	5190	0.013661857694387436
0	5238	0.008657279424369335
0	5262	0.004342214670032263
0	5298	0.006532863713800907
0	5346	0.008735107257962227
0	5394	0.008760189637541771
0	5378	-0.002927793189883232
0	5412	0.006237311288714409
0	5438	0.004780407529324293
0	5426	-0.002211709739640355
0	5434	0.0014778143959119916
0	5426	-0.0014815912581980228
0	5438	0.0022288260515779257
0	5494	0.010432060807943344
0	5514	0.003735524835065007
0	5602	0.016483722254633904
0	5638	0.006759886629879475
0	5708	0.013176552951335907
0	5690	-0.0033941345755010843
0	5682	-0.0015099657466635108
0	5674	-0.0015089784283190966
0	5550	-0.023335758596658707
0	5458	-0.017261652275919914
0	5440	-0.003366373712196946
0	5396	-0.008199470117688179
0	5408	0.0022284400183707476
0	5408	0.0
0	5368	-0.007383888121694326
0	5742	0.06887830048799515
0	7124	0.2534756660461426
0	6442	-0.12356863170862198
1	4616	-0.3283621668815613
0	4210	-0.07328254729509354
0	5480	0.2306937724351883
0	5720	0.04354768246412277
0	5706	-0.0025345482863485813
0	5702	-0.0007227957248687744
0	5710	0.0014427759451791644
0	5722	0.0021602939814329147
0	5748	0.0046726735308766365
0	5762	0.0025112107396125793
0	5762	0.0
0	5768	0.0010719773126766086
0	5750	-0.003209624206647277
0	5714	-0.0064094956032931805
0	5800	0.015293420292437077
0	5798	-0.00035524400300346315
0	5794	-0.0007098155911080539
0	5838	0.0078040012158453465
0	5874	0.006379509810358286
0	5908	0.006018267013132572
0	5944	0.006363497115671635
0	6010	0.01163939107209444
0	6010	0.0
0	6016	0.0010511931031942368
0	5938	-0.013616208918392658
0	5788	-0.026104511693120003
0	5522	-0.046190179884433746
0	5266	-0.04441411793231964
0	5022	-0.04244905337691307
0	4890	-0.023247621953487396
0	4846	-0.007820460945367813
0	4852	0.0010649753967300057
0	4868	0.0028291877824813128
0	4946	0.013842223212122917
0	5004	0.010340278036892414
0	5088	0.01503831148147583
0	5132	0.007906179875135422
0	5216	0.015146051533520222
0	5280	0.01157505065202713
0	5288	0.0014509751927107573
0	5324	0.0065481532365083694
0	5356	0.005836079362779856
0	5384	0.005119391717016697
0	5400	0.0029319063760340214
0	5408	0.0014687702059745789
0	5422	0.002576529048383236
0	5442	0.003689265577122569
0	5456	0.002588087460026145
0	5456	0.0
0	5502	0.00854584388434887
0	5562	0.011174848303198814
0	5628	0.01232155505567789
0	5668	0.007485403213649988
0	5684	0.0030005625449121
0	5666	-0.0033826532308012247
0	5640	-0.004894393961876631
0	5586	-0.01017472892999649
0	5452	-0.02523825690150261
0	5432	-0.003762510372325778
0	5414	-0.0033775754272937775
0	5424	0.00187030085362494
0	5412	-0.0022363027092069387
0	5414	0.0003714250342454761
0	5790	0.06959268450737
0	6918	0.2076965570449829
0	6922	0.0007279610144905746
1	5402	-0.2735814154148102
0	3606	-0.3227352499961853
0	5046	0.26128295063972473
0	5630	0.1061149314045906
0	5652	0.00398921687155962
0	5684	0.0057910168543457985
0	5692	0.0014448952861130238
0	5692	0.0
0	5742	0.008998092263936996
0	5762	0.0035920399241149426
0	5766	0.0007169486489146948
0	5728	-0.0067978533916175365
0	5766	0.006786845158785582
0	5786	0.003565443679690361
0	5780	-0.0010678309481590986
0	5818	0.006754194851964712
0	5828	0.001775421085767448
0	5858	0.005321224685758352
0	5858	0.0
0	5892	0.006017698906362057
0	5954	0.010957160964608192
0	6012	0.01022807415574789
0	6026	0.0024607451632618904
0	6022	-0.0007006317609921098
0	6016	-0.0010472300928086042
0	5926	-0.015654534101486206
0	5652	-0.047517746686935425
0	5350	-0.052301615476608276
0	5056	-0.05104580521583557
0	4922	-0.023519223555922508
0	4838	-0.014917952008545399
0	4818	-0.0035637919791042805
0	4886	0.012030288577079773
0	4944	0.010270819067955017
0	5018	0.013157426379621029
0	5058	0.007138947490602732
0	5114	0.010031886398792267
0	5164	0.008988063782453537
0	5252	0.015869198366999626
0	5282	0.005425936076790094
0	5316	0.006167240906506777
0	5332	0.0029101490508764982
0	5354	0.004011085256934166
0	5366	0.0021933563984930515
0	5372	0.0010994917247444391
0	5392	0.003674129256978631
0	5404	0.002210243372246623
0	5412	0.001477341284044087
0	5424	0.00222211261279881
0	5526	0.018938690423965454
0	5528	0.00037218997022137046
0	5566	0.007090345956385136
0	5580	0.002619499107822776
0	5620	0.007505159825086594
0	5620	0.0
0	5558	-0.011691347695887089
0	5454	-0.01965676248073578
0	5434	-0.003784867934882641
0	5418	-0.0030262907966971397
0	5436	0.0033968244679272175
0	5458	0.004138294141739607
0	5416	-0.007869786582887173
0	5636	0.04106929525732994
0	6704	0.1984466165304184
0	6842	0.025365469977259636
1	5022	-0.33083289861679077
0	3990	-0.18763408064842224
0	5238	0.22846263647079468
0	5660	0.0772177204489708
0	5698	0.006935994140803814
0	5688	-0.0018206535605713725
0	5700	0.002179862931370735
0	5722	0.003987529780715704
0	5732	0.0018084925832226872
0	5758	0.004691729322075844
0	5764	0.0010801987955346704
0	5764	0.0
0	5772	0.0014339659828692675
0	5792	0.0035772204864770174
0	5794	0.0003569388936739415
0	5802	0.0014254829147830606
0	5828	0.004625292029231787
0	5864	0.006394315976649523
0	5900	0.006383582018315792
0	5956	0.00991361029446125
0	6002	0.008127208799123764
0	6012	0.0017621767474338412
0	6028	0.0028102716896682978
0	6012	-0.002800531918182969
0	5912	-0.017442874610424042
0	5654	-0.044878412038087845
0	5388	-0.04621746763586998
0	5152	-0.04101162031292915
0	4942	-0.036595989018678665
0	4862	-0.0140854986384511
0	4850	-0.0021376656368374825
0	4852	0.00035664185998030007
0	4904	0.009225419722497463
0	5006	0.01813182793557644
0	5062	0.009993457235395908
0	5080	0.003224381012842059
0	5152	0.012944517657160759
0	5192	0.0072150942869484425
0	5236	0.007961975410580635
0	5256	0.003629939630627632
0	5312	0.010194793343544006
0	5328	0.002920809667557478
0	5320	-0.0014642896130681038
0	5354	0.006240440532565117
0	5374	0.003680710680782795
0	5386	0.0022141309455037117
0	5428	0.007769336923956871
0	5478	0.009272079914808273
0	5508	0.005576553754508495
0	5544	0.00670815771445632
0	5538	-0.001120894681662321
0	5572	0.006370143033564091
0	5606	0.006387695670127869
0	5618	0.002260454697534442
0	5450	-0.031724851578474045
0	5404	-0.008711901493370533
0	5396	-0.001517508295364678
0	5416	0.0037935785949230194
0	5406	-0.0018936285050585866
0	5434	0.0052866763435304165
0	5800	0.06885652989149094
0	7032	0.23040668666362762
0	6656	-0.06937610357999802
1	4962	-0.30922943353652954
0	4002	-0.1752891093492508
0	5410	0.25876009464263916
0	5668	0.047319188714027405
0	5682	0.0025596334598958492
0	5732	0.00911432970315218
0	5730	-0.0003634777676779777
0	5758	0.005074118264019489
0	5754	-0.0007229264010675251
0	5774	0.00360537925735116
0	5774	0.0
0	5770	-0.0007173086632974446
0	5796	0.004651495721191168
0	5810	0.002498542657122016
0	5814	0.0007122507086023688
0	5832	0.0031987489201128483
0	5866	0.006030507385730743
0	5872	0.001062185037881136
0	5904	0.005653843283653259
0	5946	0.007406188640743494
0	6012	0.011615083552896976
0	6060	0.008427854627370834
0	6048	-0.0020994681399315596
0	6072	0.004183225333690643
0	5980	-0.015972960740327835
0	5808	-0.029765339568257332
0	5534	-0.047307174652814865
0	5242	-0.05038594827055931
0	4994	-0.04293133318424225
0	4844	-0.026275530457496643
0	4830	-0.0024786072317510843
0	4864	0.006024167872965336
0	4918	0.009519333019852638
0	4952	0.006011032033711672
0	4996	0.0078119453974068165
0	5048	0.009269933216273785
0	5088	0.007159818895161152
0	5182	0.0168902724981308
0	5244	0.011178959161043167
0	5288	0.00795784778892994
0	5268	-0.003627832978963852
0	5348	0.014555864036083221
0	5372	0.0043779644183814526
0	5390	0.0032919603399932384
0	5388	-0.00036671230918727815
0	5424	0.00661805272102356
0	5446	0.004054502118378878
0	5436	-0.0018477229168638587
0	5470	0.006299173925071955
0	5528	0.010774526745080948
0	5564	0.006704992614686489
0	5566	0.00037353852530941367
0	5544	-0.004121599718928337
0	5632	0.016538452357053757
0	5606	-0.004899866878986359
0	5492	-0.021534625440835953
0	5438	-0.010220949538052082
0	5430	-0.001515132375061512
0	5388	-0.007945015095174313
0	5388	0.0
0	5422	0.006393861956894398
0	5520	0.018361229449510574
0	6430	0.16980145871639252
0	7166	0.13605442643165588
1	6174	-0.180909663438797
0	3390	-0.5041043162345886
0	5002	0.29483848810195923
0	5652	0.11894886195659637
0	5710	0.010583555325865746
0	5708	-0.00036391866160556674
0	5738	0.005444909445941448
0	5758	0.0036196475848555565
0	5744	-0.0025275014340877533
0	5746	0.00036026514135301113
0	5782	0.006470940541476011
0	5752	-0.005379750393331051
0	5758	0.0010738447308540344
0	5744	-0.0025009827222675085
0	5754	0.0017831455916166306
0	5782	0.004984394181519747
0	5828	0.00817632395774126
0	5854	0.004614183679223061
0	5872	0.003189001465216279
0	5922	0.008841211907565594
0	5956	0.006001765374094248
0	6008	0.009160305373370647
0	6058	0.008781379088759422
0	6060	0.00034998485352844
0	6002	-0.010112399235367775
0	5906	-0.016678249463438988
0	5634	-0.04711370915174484
0	5348	-0.049478113651275635
0	5088	-0.04502476379275322
0	4930	-0.02757481299340725
0	4834	-0.016975127160549164
0	4854	0.0035646387841552496
0	4856	0.0003533901763148606
0	4900	0.0077812750823795795
0	4964	0.011368615552783012
0	5014	0.00892113707959652
0	5110	0.017199575901031494
0	5166	0.010070855729281902
0	5190	0.004331452306360006
0	5240	0.009054034948348999
0	5262	0.00399597967043519
0	5306	0.008017200045287609
0	5328	0.004019488114863634
0	5340	0.0021982048638164997
0	5344	0.0007345469784922898
0	5404	0.011045926250517368
0	5426	0.004059589933604002
0	5422	-0.0007399368332698941
0	5468	0.008532000705599785
0	5474	0.0011156563414260745
0	5494	0.0037292095366865396
0	5542	0.008975877426564693
0	5600	0.010877447202801704
0	5638	0.007147066295146942
0	5648	0.0018857961986213923
0	5656	0.0015120015013962984
0	5704	0.00908632017672062
0	5612	-0.01740775816142559
0	5482	-0.024557029828429222
0	5402	-0.015074620023369789
0	5392	-0.001878757611848414
0	5406	0.002621101215481758
0	5404	-0.00037315755616873503
0	5396	-0.001487560337409377
0	5556	0.029660021886229515
0	6590	0.1909792721271515
0	7054	0.08487701416015625
1	5210	-0.3333614766597748
0	3738	-0.2660401165485382
0	5264	0.2782335877418518
0	5672	0.07437926530838013
0	5708	0.00654656533151865
0	5730	0.003990953788161278
0	5736	0.0010858025634661317
0	5752	0.0028885731007903814
0	5730	-0.003962060436606407
0	5746	0.0028758703265339136
0	5774	0.005023142322897911
0	5798	0.004296506755053997
0	5814	0.002858708379790187
0	5804	-0.0017830821452662349
0	5774	-0.005339408293366432
0	5804	0.005332069471478462
0	5832	0.0049705905839800835
0	5848	0.0028370805084705353
0	5904	0.009918058291077614
0	5964	0.010610955767333508
0	6002	0.006709986831992865
0	6046	0.007751664612442255
0	6100	0.009482001885771751
0	6100	0.0
0	6046	-0.009404607117176056
0	5892	-0.02672126516699791
0	5640	-0.04360263794660568
0	5354	-0.049415990710258484
0	5104	-0.043246109038591385
0	4934	-0.0296615082770586
0	4858	-0.013425980694591999
0	4844	-0.0024783441331237555
0	4874	0.005276302341371775
0	4938	0.011281906627118587
0	5002	0.011330775916576385
0	5066	0.011378183029592037
0	5084	0.003212756011635065
0	5152	0.012184342369437218
0	5194	0.007552689407020807
0	5230	0.006494599394500256
0	5262	0.005790947005152702
0	5306	0.007987220771610737
0	5336	0.005462093278765678
0	5344	0.0014607958728447556
0	5396	0.009521832689642906
0	5364	-0.005873140413314104
0	5384	0.0036806203424930573
0	5414	0.005536145064979792
0	5440	0.004810835234820843
0	5414	-0.004824643023312092
0	5446	0.005958292167633772
0	5456	0.0018684138776734471
0	5486	0.005625913850963116
0	5524	0.007153614424169064
0	5566	0.00793530885130167
0	5602	0.006822316907346249
0	5602	0.0
0	5598	-0.000759609043598175
0	5630	0.006067500915378332
0	5570	-0.011338869109749794
0	5500	-0.01317589171230793
0	5458	-0.007873819209635258
0	5438	-0.0037351062055677176
0	5426	-0.002233223058283329
0	5434	0.0014843218959867954
0	5442	0.0014803665690124035
0	5844	0.07421629875898361
0	7020	0.21609967947006226
0	6786	-0.042512986809015274
1	5084	-0.3062656819820404
0	3948	-0.20459622144699097
0	5448	0.27230149507522583
0	5732	0.0515114851295948
0	5748	0.0028951242566108704
0	5766	0.0032490973826497793
0	5736	-0.005403133574873209
0	5764	0.005031687673181295
0	5762	-0.00035859004128724337
0	5748	-0.0025049203541129827
0	5766	0.003214706666767597
0	5760	-0.001069328049197793
0	5762	0.0003557790187187493
0	5720	-0.007457828149199486
0	5792	0.012767164036631584
0	5806	0.0024785781279206276
0	5800	-0.0010607453295961022
0	5844	0.00776973320171237
0	5856	0.002116004005074501
0	5920	0.011268267408013344
0	5932	0.0021092102397233248
0	5968	0.006314238533377647
0	6002	0.005947174970060587
0	6002	0.0
0	5946	-0.009732473641633987
0	5842	-0.018020307645201683
0	5610	-0.040104638785123825
0	5336	-0.04731915518641472
0	5082	-0.04399385675787926
0	4922	-0.02802625298500061
0	4828	-0.016646597534418106
0	4806	-0.0039019084069877863
0	4840	0.005999788176268339
0	4878	0.006729713175445795
0	4930	0.009255743585526943
0	5020	0.01609768345952034
0	5050	0.0053898668847978115
0	5144	0.01695791818201542
0	5196	0.009416081942617893
0	5248	0.009448360651731491
0	5302	0.009841563180088997
0	5324	0.004020859487354755
0	5328	0.000733012449927628
0	5374	0.00845204945653677
0	5380	0.0011047825682908297
0	5416	0.006645499262958765
0	5418	0.00037008250365033746
0	5448	0.005564348306506872
0	5474	0.004834271501749754
0	5486	0.0022364971227943897
0	5486	0.0
0	5568	0.015366739593446255
0	5604	0.0067632729187607765
0	5626	0.0041434383019804955
0	5646	0.003775674384087324
0	5640	-0.0011348447296768427
0	5706	0.012499210424721241
0	5666	-0.007570691406726837
0	5538	-0.02417588047683239
0	5464	-0.013936669565737247
0	5414	-0.009384737350046635
0	5396	-0.0033661636989563704
0	5402	0.0011179429711773992
0	5424	0.004084866028279066
0	5450	0.004811310674995184
0	6022	0.1055103987455368
0	7124	0.20202885568141937
0	6658	-0.0843622162938118
1	4840	-0.3261415660381317
0	4000	-0.15101395547389984
0	5354	0.24525432288646698
0	5692	0.06120379641652107
0	5714	0.0039748502895236015
0	5720	0.0010815358255058527
0	5738	0.0032378758769482374
0	5752	0.002512953709810972
0	5736	-0.0028661848045885563
0	5736	0.0
0	5752	0.0028558510821312666
0	5736	-0.0028511350974440575
0	5746	0.0017793172737583518
0	5718	-0.0049744173884391785
0	5766	0.008520004339516163
0	5774	0.0014186408370733261
0	5828	0.00956745631992817
0	5854	0.004601606633514166
0	5910	0.00989865604788065
0	5934	0.004237188491970301
0	5974	0.007050859741866589
0	6024	0.008791053667664528
0	6062	0.006659345235675573
0	6062	0.0
0	6020	-0.007304262835532427
0	5878	-0.024607209488749504
0	5596	-0.048740021884441376
0	5294	-0.05215289071202278
0	5084	-0.03641786798834801
0	4914	-0.029832936823368073
0	4842	-0.012765354476869106
0	4844	0.00035458896309137344
0	4868	0.004233948886394501
0	4888	0.0035384034272283316
0	4956	0.012087886221706867
0	5028	0.012856683693826199
0	5088	0.010758215561509132
0	5134	0.008280131965875626
0	5174	0.007226912770420313
0	5270	0.017403494566679
0	5306	0.006544740404933691
0	5338	0.0058333128690719604
0	5362	0.004385591018944979
0	5336	-0.0047621955163776875
0	5362	0.004773328080773354
0	5368	0.0011042673140764236
0	5382	0.0025830576196312904
0	5416	0.006290393881499767
0	5418	0.00037102538044564426
0	5444	0.004838049411773682
0	5482	0.007092551328241825
0	5504	0.004118821583688259
0	5562	0.010894064791500568
0	5572	0.001884185359813273
0	5554	-0.0034020033199340105
0	5628	0.014027195051312447
0	5606	-0.00417684530839324
0	5488	-0.022401660680770874
0	5450	-0.007205248810350895
0	5448	-0.0003783483989536762
0	5436	-0.002262471942231059
0	5470	0.006386495660990477
0	5476	0.0011226284550502896
0	5620	0.02684130147099495
0	6574	0.17701852321624756
0	7166	0.1087595522403717
1	5982	-0.21470797061920166
0	3810	-0.3917560577392578
0	5114	0.23708516359329224
0	5628	0.09348627179861069
0	5676	0.00871132779866457
0	5684	0.0014486454892903566
0	5702	0.00325265945866704
0	5730	0.00504935160279274
0	5742	0.002158894669264555
0	5722	-0.003589976578950882
0	5720	-0.0003582389035727829
0	5736	0.00286013912409544
0	5736	0.0
0	5758	0.003917797468602657
0	5778	0.0035550077445805073
0	5806	0.00496829766780138
0	5818	0.002125473925843835
0	5836	0.0031833990942686796
0	5862	0.004591098055243492
0	5886	0.004230267833918333
0	5938	0.009151707403361797
0	6010	0.012646961957216263
0	6032	0.003852574620395899
0	6058	0.004537627566605806
0	6036	-0.00382595369592309
0	5964	-0.012477903626859188
0	5744	-0.03801843523979187
0	5466	-0.047967422753572464
0	5228	-0.04110204055905342
0	4982	-0.042815372347831726
0	4886	-0.016922861337661743
0	4812	-0.013129258528351784
0	4868	0.00987712386995554
0	4912	0.007771837525069714
0	4968	0.009933304972946644
0	5032	0.01140007097274065
0	5096	0.011444375850260258
0	5134	0.006819731555879116
0	5204	0.012607614509761333
0	5256	0.009396005421876907
0	5278	0.003986421972513199
0	5302	0.004360465332865715
0	5348	0.00837958324700594
0	5350	0.00036519006243906915
0	5370	0.003660992020741105
0	5410	0.007340257987380028
0	5398	-0.002207424258813262
0	5416	0.0033196855802088976
0	5432	0.002958470256999135
0	5490	0.010752953588962555
0	5522	0.005947218742221594
0	5570	0.008943877182900906
0	5562	-0.001494731055572629
0	5642	0.014991192147135735
0	5650	0.0015030248323455453
0	5572	-0.014690003357827663
0	5458	-0.021522970870137215
0	5412	-0.00870036706328392
0	5398	-0.002648839494213462
0	5398	0.0
0	5400	0.0003770123003050685
0	5376	-0.0045095826499164104
0	5778	0.07526962459087372
0	6838	0.19735127687454224
0	6720	-0.021709799766540527
1	5024	-0.3087153732776642
0	4054	-0.17657338082790375
0	5310	0.23009000718593597
0	5660	0.06404860317707062
0	5698	0.006934559904038906
0	5718	0.0036399816162884235
0	5716	-0.0003630291030276567
0	5698	-0.0032590983901172876
0	5722	0.004336304496973753
0	5740	0.003244958119466901
0	5742	0.0003597510512918234
0	5780	0.00682169059291482
0	5798	0.0032239574939012527
0	5786	-0.0021444144658744335
0	5816	0.005349754821509123
0	5800	-0.0028476843144744635
0	5810	0.0017768722027540207
0	5862	0.009226620197296143
0	5902	0.0070848288014531136
0	5938	0.00636657327413559
0	5986	0.008474376983940601
0	6018	0.005635853856801987
0	6038	0.003510866081342101
0	6038	0.0
0	6000	-0.006621593609452248
0	5866	-0.02326846681535244
0	5574	-0.050568025559186935
0	5296	-0.04808856546878815
0	5030	-0.046141039580106735
0	4852	-0.0312025249004364
0	4794	-0.010279313661158085
0	4786	-0.0014197655254974961
0	4846	0.010602329857647419
0	4928	0.014529561623930931
0	4960	0.005694693420082331
0	5054	0.01680171675980091
0	5104	0.00897257961332798
0	5194	0.016209986060857773
0	5230	0.006503673270344734
0	5282	0.009422111324965954
0	5310	0.0050875176675617695
0	5350	0.007286948151886463
0	5356	0.001095903804525733
0	5404	0.008790886029601097
0	5406	0.0003671431331895292
0	5404	-0.0003680665686260909
0	5442	0.007010294124484062
0	5440	-0.0003697996726259589
0	5458	0.0033368761651217937
0	5486	0.005204977001994848
0	5562	0.014167474582791328
0	5598	0.0067286365665495396
0	5626	0.005247114226222038
0	5614	-0.002254565479233861
0	5634	0.0037676135543733835
0	5676	0.007930213585495949
0	5628	-0.009073952212929726
0	5478	-0.028346458449959755
0	5410	-0.012835677713155746
0	5436	0.004896053113043308
0	5434	-0.00037524389335885644
0	5426	-0.0014949917094781995
0	5436	0.00186131929513067
0	5800	0.06750491261482239
0	6844	0.19257491827011108
0	6736	-0.019693413749337196
1	5192	-0.27869364619255066
0	3808	-0.2496812790632248
0	5284	0.2685166001319885
0	5678	0.07165373861789703
0	5756	0.014151285402476788
0	5742	-0.002533141989260912
0	5742	0.0
0	5758	0.0028814985416829586
0	5720	-0.006829046178609133
0	5746	0.004663733299821615
0	5764	0.003222149098291993
0	5784	0.0035733000840991735
0	5776	-0.0014263979392126203
0	5770	-0.001067780307494104
0	5814	0.007817219011485577
0	5800	-0.002483590506017208
0	5820	0.00354375340975821
0	5866	0.00814130436629057
0	5880	0.00247411010786891
0	5930	0.008823322132229805
0	5974	0.007752939593046904
0	6026	0.009143983013927937
0	6068	0.007361876778304577
0	6082	0.0024445608723908663
0	6044	-0.006610381882637739
0	5866	-0.03085528127849102
0	5590	-0.04772169515490532
0	5302	-0.04975239187479019
0	5070	-0.040193572640419006
0	4908	-0.02835671231150627
0	4802	-0.018754422664642334
0	4840	0.006738783325999975
0	4848	0.0014100892003625631
0	4898	0.008835691027343273
0	4954	0.009941651485860348
0	5014	0.010702564381062984
0	5092	0.013973820023238659
0	5134	0.007553684990853071
0	5178	0.007943098433315754
0	5254	0.013764790259301662
0	5290	0.0065395887941122055
0	5326	0.006558412220329046
0	5340	0.0025576071348041296
0	5382	0.007693246938288212
0	5382	0.0
0	5400	0.0033136967103928328
0	5426	0.00479822838678956
0	5416	-0.0018499562283977866
0	5430	0.0025971457362174988
0	5450	0.0037205610424280167
0	5502	0.00970233790576458
0	5566	0.011976496316492558
0	5554	-0.0022520548664033413
0	5580	0.0048951925709843636
0	5542	-0.007177123799920082
0	5594	0.009852465242147446
0	5572	-0.004175523761659861
0	5426	-0.02771344967186451
0	5372	-0.010242144577205181
0	5362	-0.0018930789083242416
0	5360	-0.0003775342192966491
0	5372	0.0022572798188775778
0	5416	0.008249174803495407
0	5512	0.017934540286660194
0	6394	0.16414596140384674
0	7178	0.14461565017700195
1	5452	-0.3141952157020569
0	3602	-0.33603373169898987
0	5234	0.29921162128448486
0	5682	0.08210842311382294
0	5694	0.0021935971453785896
0	5710	0.0029176140669733286
0	5760	0.009096311405301094
0	5766	0.001088784309104085
0	5750	-0.002896696561947465
0	5748	-0.0003612847358454019
0	5772	0.00432635098695755
0	5778	0.0010793438414111733
0	5824	0.008257045410573483
0	5824	0.0
0	5832	0.001429439289495349
0	5826	-0.001069976482540369
0	5846	0.0035610846243798733
0	5884	0.006754354573786259
0	5924	0.007097064051777124
0	5958	0.006018906366080046
0	6030	0.012718601152300835
0	6038	0.0014093770878389478
0	6064	0.004564072471112013
0	6068	0.0006993333227001131
0	6006	-0.010795250535011292
0	5756	-0.04336664080619812
0	5478	-0.048116862773895264
0	5224	-0.04394717141985893
0	4992	-0.040207505226135254
0	4864	-0.02236458845436573
0	4804	-0.010626615956425667
0	4830	0.004622550681233406
0	4844	0.0024710826110094786
0	4908	0.011322356760501862
0	4984	0.013506948947906494
0	5050	0.011779263615608215
0	5138	0.015767594799399376
0	5178	0.0071938131004571915
0	5222	0.007941187359392643
0	5288	0.01194973848760128
0	5334	0.008351792581379414
0	5330	-0.0007281730067916214
0	5404	0.013507922179996967
0	5418	0.0025621005333960056
0	5448	0.0055038463324308395
0	5472	0.004413441754877567
0	5444	-0.005160212516784668
0	5456	0.0022169945295900106
0	5478	0.004075231030583382
0	5492	0.0026004903484135866
0	5526	0.006333751138299704
0	5566	0.007474865764379501
0	5616	0.009371134452521801
0	5636	0.0037589743733406067
0	5610	-0.004899928346276283
0	5670	0.011335726827383041
0	5698	0.005292872432619333
0	5638	-0.011326168663799763
0	5476	-0.030501199886202812
0	5424	-0.009760859422385693
0	5434	0.0018705340335145593
0	5422	-0.00223585800267756
0	5428	0.0011138338595628738
0	5422	-0.0011098232353106141
0	5772	0.06453516334295273
0	6874	0.20221421122550964
0	6922	0.008710695430636406
1	5368	-0.2789979577064514
0	3606	-0.31598201394081116
0	5156	0.28067508339881897
0	5694	0.09749909490346909
0	5710	0.002893309108912945
0	5704	-0.0010825115023180842
0	5716	0.002161123789846897
0	5714	-0.00035954409395344555
0	5730	0.0028717750683426857
0	5748	0.0032257677521556616
0	5728	-0.0035776894073933363
0	5710	-0.003214706666767597
0	5770	0.010700909420847893
0	5754	-0.0028488675598055124
0	5762	0.0014225088525563478
0	5792	0.005328218452632427
0	5812	0.003548448206856847
0	5842	0.005317137576639652
0	5844	0.0003539906465448439
0	5884	0.00707255257293582
0	5932	0.008477769792079926
0	5970	0.0066999709233641624
0	6034	0.011251494288444519
0	6050	0.002802854171022773
0	5978	-0.012567638419568539
0	5876	-0.01774674467742443
0	5598	-0.04824322834610939
0	5314	-0.04923432320356369
0	5058	-0.044498004019260406
0	4918	-0.024593619629740715
0	4860	-0.010309766978025436
0	4794	-0.011767223477363586
0	4852	0.010268394835293293
0	4910	0.010286849923431873
0	4970	0.010691121220588684
0	5014	0.007874767296016216
0	5068	0.00970443431288004
0	5130	0.011185547336935997
0	5154	0.0043451497331261635
0	5222	0.012354201637208462
0	5294	0.013122722506523132
0	5278	-0.002923869527876377
0	5358	0.01465792115777731
0	5372	0.002571607008576393
0	5404	0.005891738925129175
0	5424	0.003690445562824607
0	5434	0.0018494088435545564
0	5438	0.0007414913852699101
0	5430	-0.001486693974584341
0	5450	0.0037262914702296257
0	5458	0.0014945449074730277
0	5472	0.0026231964584439993
0	5508	0.006766408681869507
0	5570	0.011691789142787457
0	5598	0.0052961427718400955
0	5632	0.00644647516310215
0	5652	0.00379790086299181
0	5624	-0.005315244663506746
0	5714	0.017051266506314278
0	5688	-0.004905598238110542
0	5550	-0.025911923497915268
0	5472	-0.014582891948521137
0	5418	-0.010053369216620922
0	5418	0.0
0	5442	0.004438580945134163
0	5430	-0.0022128517739474773
0	5412	-0.0033108117058873177
0	6010	0.10976101458072662
0	7126	0.20374134182929993
0	6680	-0.08045797049999237
1	4696	-0.3548010289669037
0	4310	-0.06927578151226044
0	5458	0.20723269879817963
0	5712	0.045823562890291214
0	5692	-0.0036007920280098915
0	5714	0.003954037558287382
0	5738	0.004306014161556959
0	5750	0.0021490997169166803
0	5752	0.00035751739051193
0	5756	0.0007136655040085316
0	5768	0.0021371073089540005
0	5796	0.004977423697710037
0	5788	-0.0014193960232660174
0	5758	-0.005313935689628124
0	5796	0.006723521742969751
0	5804	0.001413827296346426
0	5810	0.0010592971229925752
0	5850	0.007055420428514481
0	5918	0.011978298425674438
0	5954	0.006333865225315094
0	5996	0.007377999369055033
0	6024	0.0049058543518185616
0	6078	0.00943088624626398
0	6036	-0.0073070586659014225
0	5940	-0.01664220355451107
0	5696	-0.042177557945251465
0	5406	-0.05005235597491264
0	5152	-0.043840471655130386
0	4896	-0.04440487176179886
0	4812	-0.014760666526854038
0	4768	-0.007817312143743038
0	4780	0.0021310856100171804
0	4868	0.01558459922671318
0	4946	0.013861902989447117
0	5036	0.01606741175055504
0	5080	0.007885964587330818
0	5152	0.01295336801558733
0	5220	0.012276879511773586
0	5288	0.012316162697970867
0	5308	0.0036325769033282995
0	5352	0.008013404905796051
0	5348	-0.0007303357124328613
0	5378	0.005492493510246277
0	5396	0.003303762525320053
0	5406	0.0018394977087154984
0	5422	0.0029502513352781534
0	5430	0.0014785972889512777
0	5466	0.0066693015396595
0	5456	-0.0018569871317595243
0	5458	0.00037246261490508914
0	5500	0.007845872081816196
0	5528	0.005246786400675774
0	5548	0.0037593513261526823
0	5614	0.012447194196283817
0	5552	-0.01172391977161169
0	5630	0.01478560920804739
0	5644	0.0026549343019723892
0	5510	-0.025373341515660286
0	5474	-0.00680135004222393
0	5446	-0.005270753521472216
0	5424	-0.004124896600842476
0	5406	-0.0033611352555453777
0	5420	0.0026040696538984776
0	5394	-0.00481963437050581
0	5910	0.09538716077804565
0	7058	0.2110811471939087
0	6754	-0.055226538330316544
1	4816	-0.3486865758895874
0	4460	-0.06420738995075226
0	5498	0.18814800679683685
0	5690	0.03476203605532646
0	5698	0.0014454696793109179
0	5698	0.0
0	5710	0.0021594902500510216
0	5682	-0.005029337480664253
0	5710	0.005021040793508291
0	5710	0.0
0	5732	0.003931754268705845
0	5748	0.0028549334965646267
0	5752	0.0007124959374777973
0	5770	0.0032006448600441217
0	5750	-0.0035505900159478188
0	5768	0.0031913386192172766
0	5794	0.004603725392371416
0	5802	0.0014150275383144617
0	5844	0.007417961023747921
0	5912	0.011994919739663601
0	5968	0.00986262783408165
0	5998	0.005269382614642382
0	6034	0.006303919013589621
0	6046	0.002094118855893612
0	5964	-0.014258223585784435
0	5824	-0.024264834821224213
0	5584	-0.041499994695186615
0	5274	-0.0535455197095871
0	5042	-0.04022005572915077
0	4892	-0.026310864835977554
0	4856	-0.006384110543876886
0	4836	-0.0035458896309137344
0	4862	0.0045994361862540245
0	4950	0.015625925734639168
0	5022	0.012841091491281986
0	5068	0.008237133733928204
0	5128	0.010784642770886421
0	5208	0.014429840259253979
0	5232	0.004341324791312218
0	5268	0.006530809681862593
0	5292	0.004365541040897369
0	5330	0.006930597126483917
0	5342	0.002194185508415103
0	5368	0.004765978083014488
0	5356	-0.002205098746344447
0	5378	0.004052461124956608
0	5410	0.005908637773245573
0	5414	0.0007403294439427555
0	5448	0.006307899486273527
0	5486	0.007067312952131033
0	5538	0.009696668945252895
0	5590	0.009722654707729816
0	5578	-0.002249409444630146
0	5618	0.007519456557929516
0	5612	-0.0011309516848996282
0	5606	-0.0011334584560245275
0	5482	-0.023457007482647896
0	5434	-0.009085975587368011
0	5438	0.0007564010447822511
0	5442	0.000754517677705735
0	5446	0.0007519173668697476
0	5452	0.0011237218277528882
0	5582	0.024254033342003822
0	6476	0.16604961454868317
0	7190	0.13137558102607727
1	6058	-0.2055540680885315
0	3396	-0.48049962520599365
0	4724	0.24223262071609497
0	5592	0.15879403054714203
0	5690	0.01788908615708351
0	5702	0.0021848902106285095
0	5730	0.005085423123091459
0	5730	0.0
0	5720	-0.0018075990956276655
0	5758	0.006854339502751827
0	5744	-0.0025191938038915396
0	5758	0.002513675717636943
0	5782	0.004300201777368784
0	5758	-0.004290771204978228
0	5750	-0.001427619718015194
0	5774	0.004276143852621317
0	5780	0.0010675396770238876
0	5824	0.00781981274485588
0	5886	0.011002792976796627
0	5932	0.008150440640747547
0	5950	0.003183286637067795
0	6012	0.010942463763058186
0	6066	0.009500909596681595
0	6082	0.002804688410833478
0	6068	-0.002444902202114463
0	5976	-0.01600816659629345
0	5768	-0.0360814593732357
0	5420	-0.0602569580078125
0	5180	-0.04159541428089142
0	4982	-0.03457508981227875
0	4874	-0.019104674458503723
0	4828	-0.008194385096430779
0	4826	-0.0003532736736815423
0	4886	0.010591848753392696
0	4968	0.014535914175212383
0	5010	0.007477123755961657
0	5066	0.010010605677962303
0	5106	0.007178836967796087
0	5188	0.014771758578717709
0	5228	0.007228828500956297
0	5274	0.008339779451489449
0	5290	0.002909055445343256
0	5344	0.00984598882496357
0	5346	0.0003656396293081343
0	5378	0.005864959210157394
0	5394	0.002939159283414483
0	5380	-0.0025777623523026705
0	5406	0.0047990549355745316
0	5386	-0.0037010994274169207
0	5416	0.0055688247084617615
0	5470	0.010055990889668465
0	5518	0.008965371176600456
0	5540	0.004121805541217327
0	5554	0.0026316121220588684
0	5526	-0.005280693992972374
0	5614	0.016653209924697876
0	5622	0.0015173930441960692
0	5528	-0.017845841124653816
0	5460	-0.012900942005217075
0	5438	-0.004166456405073404
0	5416	-0.00415449682623148
0	5428	0.0022583843674510717
0	5448	0.003749859519302845
0	5450	0.00037353389780037105
0	6028	0.10757356882095337
0	7034	0.18600694835186005
0	6484	-0.10044071823358536
1	4558	-0.3487150967121124
0	4508	-0.009082872420549393
0	5640	0.20648643374443054
0	5696	0.010189352557063103
0	5726	0.005444645881652832
0	5704	-0.003982237074524164
0	5720	0.002889895113185048
0	5730	0.0018021265277639031
0	5748	0.0032369832042604685
0	5756	0.0014356127940118313
0	5798	0.007520053070038557
0	5806	0.001429047784768045
0	5828	0.003920077811926603
0	5822	-0.0010665023000910878
0	5824	0.00035476087941788137
0	5850	0.004603562410920858
0	5858	0.001413893885910511
0	5862	0.0007056831382215023
0	5928	0.011620809324085712
0	5980	0.00913894735276699
0	6026	0.008067533373832703
0	6058	0.00559590570628643
0	6090	0.005576467607170343
0	6026	-0.011110854335129261
0	5888	-0.023873504251241684
0	5598	-0.0500362366437912
0	5340	-0.044476624578237534
0	5090	-0.043124761432409286
0	4916	-0.03017759695649147
0	4838	-0.013695583678781986
0	4806	-0.00567335681989789
0	4824	0.0031865928322076797
0	4916	0.01625671423971653
0	4954	0.006743486970663071
0	5004	0.008912126533687115
0	5082	0.013962813653051853
0	5152	0.012577411718666553
0	5228	0.013702087104320526
0	5246	0.003255051327869296
0	5248	0.0003627701080404222
0	5314	0.012008296325802803
0	5330	0.002919672289863229
0	5346	0.002928150352090597
0	5354	0.0014683929039165378
0	5400	0.008467504754662514
0	5410	0.0018455632962286472
0	5436	0.004811488091945648
0	5440	0.0007421609479933977
0	5464	0.004464617930352688
0	5476	0.0022387502249330282
0	5494	0.003368683625012636
0	5552	0.010890791192650795
0	5614	0.011678868904709816
0	5614	0.0
0	5600	-0.002651950577273965
0	5660	0.011386208236217499
0	5648	-0.0022763486485928297
0	5590	-0.010980966500937939
0	5438	-0.028687184676527977
0	5396	-0.007900776341557503
0	5402	0.0011247469810768962
0	5350	-0.009711639024317265
0	5426	0.014147607609629631
0	5442	0.0029690477531403303
0	6026	0.1080441027879715
0	7088	0.19524690508842468
0	6568	-0.09444013983011246
1	4842	-0.3108043074607849
0	4178	-0.11984549462795258
0	5428	0.22707180678844452
0	5660	0.04209864139556885
0	5692	0.0057945819571614265
0	5708	0.00289097405038774
0	5700	-0.001442342414520681
0	5714	0.002518861321732402
0	5736	0.003950770944356918
0	5738	0.000358461489668116
0	5764	0.004651606548577547
0	5766	0.00035712585668079555
0	5768	0.0003564850485417992
0	5782	0.0024910734500736
0	5804	0.003907869104295969
0	5828	0.004256777931004763
0	5856	0.004959965590387583
0	5862	0.0010613332269713283
0	5894	0.005651713348925114
0	5918	0.004232953768223524
0	5984	0.011622173711657524
0	6020	0.006324740592390299
0	6044	0.004202171228826046
0	6028	-0.0027908924967050552
0	6036	0.001390385557897389
0	5856	-0.031159838661551476
0	5540	-0.05456743389368057
0	5222	-0.05488183721899986
0	4948	-0.04750785976648331
0	4858	-0.015800192952156067
0	4838	-0.0035466442350298166
0	4852	0.0024827097076922655
0	4862	0.0017663267208263278
0	4924	0.010987842455506325
0	5048	0.02207164838910103
0	5100	0.00929135549813509
0	5152	0.009325123392045498
0	5198	0.0082762585952878
0	5226	0.0050533609464764595
0	5302	0.013758478686213493
0	5308	0.0010890609119087458
0	5336	0.005096345208585262
0	5362	0.0047446987591683865
0	5380	0.003292924026027322
0	5384	0.0007335590780712664
0	5404	0.0036772366147488356
0	5452	0.008848360739648342
0	5454	0.0003695992345456034
0	5424	-0.0055579571053385735
0	5450	0.004830917809158564
0	5462	0.0022361360024660826
0	5484	0.004112918395549059
0	5488	0.0007503094966523349
0	5568	0.015058539807796478
0	5600	0.00604085111990571
0	5636	0.0068146539852023125
0	5624	-0.002274709055200219
0	5666	0.007957258261740208
0	5660	-0.0011335726594552398
0	5546	-0.021441737189888954
0	5468	-0.014607653953135014
0	5444	-0.00447705527767539
0	5436	-0.001486878376454115
0	5432	-0.0007408047677017748
0	5448	0.002953955205157399
0	5448	0.0
0	5858	0.07534825801849365
0	6948	0.19945348799228668
0	6862	-0.015570496208965778
1	5038	-0.3270106613636017
0	3950	-0.1953672170639038
0	5490	0.2787969410419464
0	5692	0.03653551638126373
0	5698	0.001083058537915349
0	5726	0.0050446209497749805
0	5744	0.003236323595046997
0	5764	0.003588602412492037
0	5768	0.0007163836853578687
0	5754	-0.002502651419490576
0	5746	-0.001427280018106103
0	5752	0.0010685790330171585
0	5790	0.006756036076694727
0	5804	0.0024845602456480265
0	5812	0.0014170996146276593
0	5842	0.005306478589773178
0	5852	0.0017663059988990426
0	5876	0.00423375004902482
0	5912	0.006341228727251291
0	5918	0.0010553470347076654
0	6026	0.018967557698488235
0	6016	-0.0017513340571895242
0	6074	0.01012534461915493
0	6064	-0.0017393723828718066
0	6008	-0.00970514863729477
0	5812	-0.033855363726615906
0	5528	-0.048953138291835785
0	5118	-0.07063931226730347
0	4928	-0.03287500515580177
0	4814	-0.019957518205046654
0	4778	-0.006378605496138334
0	4802	0.004258943721652031
0	4890	0.01553781982511282
0	4928	0.00673329085111618
0	4992	0.011391684412956238
0	5044	0.009294676594436169
0	5104	0.010768383741378784
0	5130	0.004684234503656626
0	5208	0.01410641334950924
0	5222	0.0025404966436326504
0	5312	0.016384489834308624
0	5314	0.0003650612197816372
0	5350	0.006588660646229982
0	5378	0.005138305947184563
0	5404	0.004783749580383301
0	5444	0.007378077134490013
0	5436	-0.0014792351284995675
0	5460	0.004449113272130489
0	5462	0.0003717149666044861
0	5494	0.005964066367596388
0	5486	-0.0014949544565752149
0	5490	0.0007499999483115971
0	5482	-0.001504947547800839
0	5524	0.007930413819849491
0	5594	0.013262431137263775
0	5648	0.010257839225232601
0	5648	0.0
0	5612	-0.0068404655903577805
0	5678	0.012501736171543598
0	5646	-0.006032879464328289
0	5530	-0.021755438297986984
0	5446	-0.01568022184073925
0	5428	-0.0033466373570263386
0	5428	0.0
0	5426	-0.00036947178887203336
0	5448	0.004053357057273388
0	5420	-0.005146049428731203
0	6110	0.12656834721565247
0	7158	0.1910920888185501
0	6458	-0.12614279985427856
1	4694	-0.31553715467453003
0	4206	-0.08761430531740189
0	5388	0.21362991631031036
0	5688	0.05420837551355362
0	5734	0.008296459913253784
0	5730	-0.0007200029212981462
0	5732	0.0003593847213778645
0	5748	0.002869989490136504
0	5750	0.0003581320052035153
0	5766	0.00286013912409544
0	5748	-0.0032124498393386602
0	5782	0.006058518309146166
0	5774	-0.0014230655506253242
0	5786	0.002130908891558647
0	5788	0.00035460153594613075
0	5820	0.005667127203196287
0	5836	0.0028306893073022366
0	5852	0.002827554475516081
0	5902	0.008823633193969727
0	5970	0.011984349228441715
0	6030	0.010554336942732334
0	6062	0.005612525623291731
0	6098	0.006291432771831751
0	6078	-0.003481651656329632
0	6072	-0.0010405706707388163
0	5990	-0.01416822150349617
0	5730	-0.044783834367990494
0	5390	-0.05845942348241806
0	5102	-0.049723755568265915
0	4916	-0.03249778598546982
0	4810	-0.018688073381781578
0	4766	-0.007752029225230217
0	4788	0.003863309044390917
0	4832	0.0077538504265248775
0	4920	0.015586070716381073
0	5024	0.018508851528167725
0	5068	0.007863602600991726
0	5104	0.0064594075083732605
0	5162	0.01044706255197525
0	5198	0.006507356651127338
0	5224	0.004715897608548403
0	5266	0.0076421997509896755
0	5304	0.006936078425496817
0	5336	0.005857659038156271
0	5348	0.0022026703227311373
0	5348	0.0
0	5400	0.009598464705049992
0	5426	0.004812141414731741
0	5424	-0.0003711401659529656
0	5492	0.012656185775995255
0	5480	-0.002240087604150176
0	5498	0.003371670376509428
0	5560	0.011654573492705822
0	5594	0.006412835791707039
0	5596	0.0003783770080190152
0	5620	0.004554194863885641
0	5606	-0.002662845654413104
0	5654	0.009136940352618694
0	5632	-0.0041807605884969234
0	5494	-0.02613702416419983
0	5442	-0.009812925010919571
0	5416	-0.004887034185230732
0	5418	0.00037440095911733806
0	5434	0.0029834790620952845
0	5478	0.008173982612788677
0	5554	0.014070079661905766
0	6346	0.14614702761173248
0	7254	0.16624556481838226
0	6562	-0.12505722045898438
1	4340	-0.39819836616516113
0	4456	0.020895129069685936
0	5526	0.19363245368003845
0	5692	0.02999313361942768
0	5724	0.005768329370766878
0	5732	0.0014387281844392419
0	5742	0.001794279902242124
0	5732	-0.001790061593055725
0	5750	0.0032157404348254204
0	5770	0.0035661642905324697
0	5756	-0.0024911919608712196
0	5742	-0.002487296937033534
0	5750	0.0014191106893122196
0	5738	-0.002125498838722706
0	5742	0.00070775585481897
0	5770	0.004949969705194235
0	5806	0.006357728503644466
0	5842	0.006350774317979813
0	5856	0.0024663228541612625
0	5944	0.015484233386814594
0	5994	0.008781789802014828
0	6060	0.011558129452168941
0	6068	0.0013959493953734636
0	6048	-0.003476688638329506
0	6000	-0.00831370335072279
0	5856	-0.024859875440597534
0	5586	-0.04651109129190445
0	5296	-0.04994718357920647
0	5068	-0.03950697183609009
0	4928	-0.024568874388933182
0	4834	-0.016655445098876953
0	4810	-0.004240083042532206
0	4824	0.0024682360235601664
0	4882	0.010267910547554493
0	4964	0.01458642166107893
0	5016	0.009291797876358032
0	5088	0.01292066927999258
0	5084	-0.0007206341833807528
0	5170	0.015554161742329597
0	5236	0.01197880133986473
0	5238	0.00036417049705050886
0	5284	0.00840233825147152
0	5308	0.0043960874900221825
0	5340	0.0058773113414645195
0	5364	0.0044187502935528755
0	5382	0.0033217687159776688
0	5382	0.0
0	5386	0.0007418764289468527
0	5418	0.005951790604740381
0	5484	0.012308993376791477
0	5514	0.005611042492091656
0	5518	0.0007503845845349133
0	5594	0.01430579274892807
0	5586	-0.0015103648183867335
0	5620	0.00643776822835207
0	5638	0.0034164241515100002
0	5598	-0.007602539379149675
0	5478	-0.02280588448047638
0	5448	-0.005694904830306768
0	5448	0.0
0	5464	0.0030200835317373276
0	5470	0.0011280598118901253
0	5434	-0.00674047926440835
0	6016	0.10855778306722641
0	7048	0.19114650785923004
0	6644	-0.07387810945510864
1	5092	-0.28102025389671326
0	4108	-0.17816834151744843
0	5256	0.20909476280212402
0	5678	0.07682225108146667
0	5688	0.0018155630677938461
0	5702	0.002534884959459305
0	5724	0.003973366227000952
0	5716	-0.0014412510208785534
0	5748	0.005752016324549913
0	5754	0.0010760272853076458
0	5734	-0.0035787990782409906
0	5758	0.004285560920834541
0	5764	0.00106902327388525
0	5754	-0.0017780517227947712
0	5786	0.0056806751526892185
0	5784	-0.00035447164555080235
0	5826	0.007432224694639444
0	5826	0.0
0	5876	0.008823322132229805
0	5938	0.01092446781694889
0	5956	0.0031660411041229963
0	6008	0.009127183817327023
0	6044	0.006299286149442196
0	6074	0.0052312202751636505
0	6008	-0.011466960422694683
0	5864	-0.02494024857878685
0	5612	-0.04354638233780861
0	5210	-0.06939569115638733
0	4992	-0.03780784085392952
0	4860	-0.02316819131374359
0	4804	-0.00993259996175766
0	4818	0.0024873854126781225
0	4884	0.011677144095301628
0	4932	0.008511141873896122
0	4990	0.010329842567443848
0	5076	0.015380396507680416
0	5152	0.013642891310155392
0	5194	0.007565386593341827
0	5250	0.010118897072970867
0	5294	0.007974481210112572
0	5334	0.007269731257110834
0	5354	0.0036436952650547028
0	5378	0.0043831877410411835
0	5428	0.009153150022029877
0	5466	0.006970260292291641
0	5454	-0.002205449854955077
0	5426	-0.0051564741879701614
0	5474	0.008861429058015347
0	5490	0.0029602220747619867
0	5552	0.011498232372105122
0	5614	0.011525734327733517
0	5576	-0.007079162169247866
0	5640	0.011954870074987411
0	5638	-0.000374531839042902
0	5588	-0.009388848207890987
0	5486	-0.019203735515475273
0	5428	-0.010945736430585384
0	5428	0.0
0	5430	0.00037735849036835134
0	5434	0.000752643623854965
0	5436	0.00037497185985557735
0	5810	0.06984388083219528
0	6968	0.21492736041545868
0	6716	-0.04617639631032944
1	4940	-0.3219257593154907
0	4216	-0.13127516210079193
0	5440	0.2230944037437439
0	5706	0.04839824512600899
0	5728	0.003990471363067627
0	5694	-0.0061493199318647385
0	5708	0.002525981515645981
0	5692	-0.0028803572058677673
0	5684	-0.0014372634468600154
0	5708	0.004303903318941593
0	5708	0.0
0	5746	0.006793316453695297
0	5756	0.0017846095142886043
0	5768	0.002137335715815425
0	5762	-0.0010668057948350906
0	5788	0.004615384619683027
0	5826	0.00673615513369441
0	5818	-0.0014163637533783913
0	5894	0.013436265289783478
0	5918	0.004236689768731594
0	6006	0.015508976764976978
0	6062	0.009845172986388206
0	6080	0.003153874073177576
0	6114	0.005934718064963818
0	6004	-0.0191242266446352
0	5820	-0.03188355639576912
0	5546	-0.047373153269290924
0	5200	-0.05978367477655411
0	4922	-0.04820363223552704
0	4820	-0.017897875979542732
0	4780	-0.007097484078258276
0	4784	0.0007104206597432494
0	4826	0.007434417959302664
0	4900	0.013146363198757172
0	4988	0.01570848748087883
0	5022	0.006096030585467815
0	5078	0.010081008076667786
0	5162	0.015178893692791462
0	5196	0.006163514219224453
0	5254	0.01054532639682293
0	5294	0.007292705122381449
0	5340	0.00840776413679123
0	5332	-0.0014658457366749644
0	5368	0.006613432429730892
0	5388	0.0036831507459282875
0	5394	0.001107487827539444
0	5422	0.00518083618953824
0	5466	0.008161650039255619
0	5486	0.003717932617291808
0	5548	0.011554804630577564
0	5604	0.010460642166435719
0	5610	0.001123595517128706
0	5600	-0.001877957838587463
0	5612	0.002260341076180339
0	5654	0.007936207577586174
0	5666	0.0022724978625774384
0	5528	-0.026159154251217842
0	5468	-0.011374839581549168
0	5462	-0.0011355606839060783
0	5474	0.0022634107153862715
0	5430	-0.008265187032520771
0	5438	0.0014966698363423347
0	5456	0.0033538290299475193
0	6156	0.12991833686828613
0	7122	0.1779049187898636
0	6536	-0.10652608424425125
1	4308	-0.40133535861968994
0	4480	0.0311267152428627
0	5502	0.18571461737155914
0	5686	0.03337404504418373
0	5682	-0.0007236326346173882
0	5694	0.00216583046130836
0	5696	0.0003602046053856611
0	5738	0.0075478027574718
0	5734	-0.0007172486511990428
0	5758	0.004294610116630793
0	5772	0.0024997619912028313
0	5764	-0.0014254659181460738
0	5740	-0.0042688422836363316
0	5740	0.0
0	5760	0.003547986503690481
0	5820	0.010634149424731731
0	5838	0.0031862917821854353
0	5868	0.005303039215505123
0	5910	0.007413072977215052
0	5946	0.0063445065170526505
0	6020	0.013020070269703865
0	6052	0.005614100955426693
0	6082	0.005245305597782135
0	6060	-0.003832707880064845
0	5992	-0.011806375347077847
0	5794	-0.03426593542098999
0	5514	-0.04835756868124008
0	5230	-0.049032021313905716
0	4986	-0.042351797223091125
0	4868	-0.020737893879413605
0	4804	-0.011358661577105522
0	4814	0.0017695983406156301
0	4858	0.007770922500640154
0	4896	0.006736792623996735
0	4978	0.014605473726987839
0	5052	0.013235872611403465
0	5112	0.010773024521768093
0	5164	0.009369369596242905
0	5226	0.011209816671907902
0	5268	0.0076170675456523895
0	5320	0.009458672255277634
0	5346	0.004742333199828863
0	5354	0.0014628972858190536
0	5378	0.00439904211089015
0	5428	0.009184985421597958
0	5416	-0.0022088871337473392
0	5444	0.005166877992451191
0	5450	0.0011098779505118728
0	5470	0.0037091528065502644
0	5472	0.00037192695890553296
0	5534	0.011563711799681187
0	5584	0.009353836998343468
0	5602	0.0033772375900298357
0	5612	0.0018818924436345696
0	5616	0.0007548783905804157
0	5634	0.0034050066024065018
0	5598	-0.0068168905563652515
0	5484	-0.021575381979346275
0	5442	-0.00793610792607069
0	5416	-0.0048987590707838535
0	5418	0.000375535135390237
0	5462	0.008230144158005714
0	5442	-0.003725921269506216
0	5618	0.03266962990164757
0	6710	0.2017986923456192
0	7018	0.056316737085580826
1	5728	-0.23307916522026062
0	3344	-0.42915260791778564
0	4930	0.28865402936935425
0	5620	0.1258068084716797
0	5678	0.010552489198744297
0	5704	0.004720178432762623
0	5714	0.00181152846198529
0	5708	-0.0010845594806596637
0	5734	0.004690431524068117
0	5714	-0.0036013973876833916
0	5744	0.005392450373619795
0	5736	-0.0014354066224768758
0	5756	0.003582388861104846
0	5756	0.0
0	5776	0.003570238361135125
0	5786	0.0017825524555519223
0	5786	0.0
0	5818	0.005691114813089371
0	5866	0.008526260033249855
0	5912	0.008158921264111996
0	5960	0.008499687537550926
0	5990	0.005300977732986212
0	6068	0.013741587288677692
0	6072	0.0007021157070994377
0	6058	-0.00244800909422338
0	5980	-0.013588218949735165
0	5750	-0.03994766250252724
0	5410	-0.05894795432686806
0	5152	-0.04478492960333824
0	4958	-0.03398182988166809
0	4846	-0.019857216626405716
0	4838	-0.0014258046867325902
0	4848	0.0017665764316916466
0	4886	0.006716233678162098
0	4934	0.00852050818502903
0	5002	0.012124094180762768
0	5036	0.006087444256991148
0	5102	0.011864813044667244
0	5166	0.011547205038368702
0	5214	0.008690089918673038
0	5238	0.00435819523409009
0	5266	0.005100182257592678
0	5324	0.010594896972179413
0	5354	0.005494572687894106
0	5344	-0.0018360302783548832
0	5362	0.003313615219667554
0	5374	0.0022148394491523504
0	5372	-0.0003700779634527862
0	5406	0.006308679934591055
0	5428	0.004093734081834555
0	5454	0.004852617625147104
0	5528	0.01385490968823433
0	5586	0.010890655219554901
0	5616	0.005650143139064312
0	5636	0.0037775763776153326
0	5600	-0.006817751098424196
0	5650	0.009491869248449802
0	5630	-0.0037991513963788748
0	5492	-0.026177680119872093
0	5420	-0.013628619723021984
0	5412	-0.0015098898438736796
0	5388	-0.0045135971158742905
0	5412	0.004498088266700506
0	5444	0.005976393353193998
0	5456	0.0022333890665322542
0	6048	0.10982487350702286
0	7082	0.19058971107006073
0	6642	-0.08009514212608337
1	4764	-0.3386957347393036
0	4442	-0.05821311101317406
0	5534	0.19834111630916595
0	5722	0.034085553139448166
0	5704	-0.0032545411959290504
0	5730	0.004690262489020824
0	5722	-0.0014399021165445447
0	5742	0.0035916101187467575
0	5748	0.001075037638656795
0	5690	-0.01036886963993311
0	5756	0.011776741594076157
0	5764	0.0014245184138417244
0	5800	0.006397573743015528
0	5802	0.0003546937950886786
0	5816	0.0024788414593786
0	5818	0.000353640120010823
0	5830	0.0021193174179643393
0	5860	0.005292249843478203
0	5876	0.002818224485963583
0	5934	0.010202526114881039
0	6016	0.014398595318198204
0	6064	0.008402674458920956
0	6100	0.0062784128822386265
0	6062	-0.0066008130088448524
0	5988	-0.0128042446449399
0	5782	-0.035526227205991745
