0	5700	0.006596709135919809
0	5742	0.007679835893213749
0	5776	0.006204228848218918
0	5832	0.010195535607635975
0	5836	0.0007261110004037619
0	5804	-0.005789689254015684
0	5716	-0.015870915725827217
0	5566	-0.02697809226810932
0	5336	-0.04129313677549362
0	5118	-0.03912559896707535
0	4924	-0.03489626944065094
0	4856	-0.012342989444732666
0	4778	-0.01431560330092907
0	4822	0.008101538754999638
0	4844	0.004014207981526852
0	4904	0.01095676887780428
0	4962	0.010628031566739082
0	5012	0.009193429723381996
0	5066	0.009960771538317204
0	5100	0.006290393881499767
0	5118	0.0033396417275071144
0	5158	0.0074413069523870945
0	5226	0.012683726847171783
0	5218	-0.0014955507358536124
0	5234	0.002997826552018523
0	5262	0.0052574919536709785
0	5274	0.0022577045019716024
0	5300	0.00490257702767849
0	5320	0.003778670681640506
0	5336	0.00302900280803442
0	5348	0.0022764638997614384
0	5330	-0.003422313369810581
0	5402	0.013725091703236103
0	5390	-0.0022929643746465445
0	5310	-0.01532958634197712
0	5260	-0.00961328949779272
0	5274	0.0027011383790522814
0	5260	-0.002708838554099202
0	5272	0.002326452871784568
0	5270	-0.0003879026335198432
0	5560	0.05619066208600998
0	6508	0.18293388187885284
0	6652	0.027495259419083595
1	5152	-0.2830331027507782
1	3336	-0.3419490158557892
0	5090	0.3334304988384247
0	5496	0.0770886093378067
0	5534	0.007190886419266462
0	5542	0.0015089025255292654
0	5574	0.006017601583153009
0	5568	-0.0011249578092247248
0	5588	0.003739343024790287
0	5574	-0.0026105442084372044
0	5596	0.004093429539352655
0	5594	-0.00037125954986549914
0	5588	-0.001111303106881678
0	5574	-0.0025878322776407003
0	5612	0.007011156529188156
0	5628	0.002946411957964301
0	5642	0.0025732454378157854
0	5684	0.0077052912674844265
0	5720	0.006590992212295532
0	5780	0.010958904400467873
0	5812	0.005831328686326742
0	5846	0.006179945543408394
0	5828	-0.0032611454371362925
0	5820	-0.001444443129003048
0	5700	-0.021595681086182594
0	5520	-0.032308243215084076
0	5208	-0.05591798573732376
0	5002	-0.03693389147520065
0	4882	-0.02158687636256218
0	4770	-0.020346125587821007
0	4794	0.004410143475979567
0	4814	0.0036831959150731564
0	4858	0.008030173368752003
0	4934	0.013889904133975506
0	4970	0.006602032110095024
0	5024	0.009937308728694916
0	5090	0.012184316292405128
0	5100	0.0018516232958063483
0	5182	0.015227294526994228
0	5208	0.0048403311520814896
0	5210	0.0003731807228177786
0	5234	0.004488945938646793
0	5240	0.0011247609509155154
0	5288	0.009017697535455227
0	5248	-0.007528230547904968
0	5290	0.007922734133899212
0	5306	0.00302461301907897
0	5294	-0.0022732724901288748
0	5364	0.0132934944704175
0	5374	0.0019033600110560656
0	5358	-0.0030532407108694315
0	5390	0.006124167237430811
0	5414	0.004606525879353285
0	5362	-0.010007312521338463
0	5268	-0.01814344897866249
0	5262	-0.0011613203678280115
0	5272	0.0019387610955163836
0	5258	-0.002713143127039075
0	5274	0.0030956158880144358
0	5436	0.03126407414674759
0	6322	0.17025801539421082
0	6836	0.09781533479690552
1	5634	-0.22584643959999084
1	3338	-0.429313987493515
0	5074	0.32786473631858826
0	5468	0.07436300814151764
0	5510	0.007904940284788609
0	5546	0.006757855881005526
0	5552	0.0011231747921556234
0	5558	0.0011205876944586635
0	5538	-0.00372717110440135
0	5568	0.005579388700425625
0	5570	0.0003711906319949776
0	5580	0.0018521718448027968
0	5604	0.004437213763594627
0	5592	-0.0022137498017400503
0	5586	-0.0011048231972381473
0	5648	0.011396918445825577
0	5644	-0.0007336936541832983
0	5694	0.009155496954917908
0	5716	0.004020565655082464
0	5802	0.015682555735111237
0	5816	0.0025465968064963818
0	5834	0.003266234416514635
0	5828	-0.0010856454027816653
0	5734	-0.016951190307736397
0	5596	-0.024815382435917854
0	5372	-0.04020196571946144
0	5152	-0.03945716470479965
0	4932	-0.03948596492409706
0	4846	-0.015482106246054173
0	4822	-0.004359197802841663
0	4808	-0.0025742549914866686
0	4870	0.011458282358944416
0	4902	0.005858659744262695
0	4968	0.012096183374524117
0	5010	0.007721155881881714
0	5062	0.009588906541466713
0	5094	0.005918473470956087
0	5118	0.00445142388343811
0	5160	0.00781124085187912
0	5182	0.004101213067770004
0	5182	0.0
0	5226	0.008242066949605942
0	5264	0.0071339174173772335
0	5252	-0.002257619285956025
0	5258	0.0011312217684462667
0	5250	-0.0015114110428839922
0	5246	-0.0007576044881716371
0	5298	0.009873667731881142
0	5328	0.005710659548640251
0	5374	0.00877795647829771
0	5362	-0.0022961527574807405
0	5430	0.013049318455159664
0	5438	0.001539191696792841
0	5370	-0.013115935027599335
0	5322	-0.009280025027692318
0	5280	-0.008134385570883751
0	5286	0.0011627456406131387
0	5300	0.002710726810619235
0	5294	-0.0011589874047785997
0	5280	-0.0026965253055095673
0	5904	0.11983560770750046
0	6888	0.18765495717525482
0	6136	-0.14159470796585083
1	4126	-0.3755558431148529
0	4322	0.03681442514061928
0	5284	0.18147289752960205
0	5478	0.036545392125844955
0	5508	0.0056377556174993515
0	5516	0.0014997376129031181
0	5546	0.0056115323677659035
0	5578	0.005972080398350954
0	5574	-0.0007446755771525204
0	5562	-0.002229212550446391
0	5568	0.0011125532910227776
0	5554	-0.00259089726023376
0	5550	-0.0007389071979559958
0	5576	0.004794040694832802
0	5602	0.004784336779266596
0	5620	0.003306068480014801
0	5630	0.001833427115343511
0	5644	0.002562788315117359
0	5706	0.011329994536936283
0	5746	0.00729740597307682
0	5782	0.006555387284606695
0	5808	0.004722636193037033
0	5820	0.002173283137381077
0	5784	-0.006498664151877165
0	5676	-0.019437745213508606
0	5516	-0.028731847181916237
0	5332	-0.032997775822877884
0	5078	-0.04553712159395218
0	4954	-0.02234099991619587
0	4846	-0.019686952233314514
0	4848	0.0003674534091260284
0	4846	-0.00036583581822924316
0	4870	0.0043760486878454685
0	4950	0.01462362427264452
0	4992	0.00770218251273036
0	5040	0.00883034709841013
0	5066	0.004797107074409723
0	5138	0.013323629274964333
0	5144	0.0011133240768685937
0	5154	0.0018604883225634694
0	5208	0.010072121396660805
0	5206	-0.0003738783416338265
0	5232	0.004870981443673372
0	5232	0.0
0	5250	0.003386216936632991
0	5280	0.0056561799719929695
0	5294	0.0026452026795595884
0	5334	0.007573749404400587
0	5376	0.007968026213347912
0	5356	-0.0038022329099476337
0	5370	0.00266815721988678
0	5374	0.000764331198297441
0	5382	0.0015328997978940606
0	5292	-0.017293503507971764
0	5236	-0.010794417932629585
0	5262	0.005025902763009071
0	5252	-0.0019362083403393626
0	5286	0.006586508825421333
0	5264	-0.004256142303347588
0	5394	0.025099754333496094
0	6224	0.15968908369541168
0	6878	0.12472663819789886
1	5726	-0.21690012514591217
0	3582	-0.40151816606521606
0	4796	0.22931043803691864
0	5380	0.11044707894325256
0	5492	0.02113633044064045
0	5502	0.0018821285339072347
0	5548	0.008638065308332443
0	5536	-0.0022477242164313793
0	5544	0.0014949172036722302
0	5564	0.0037294880021363497
0	5556	-0.0014884828124195337
0	5588	0.005941991228610277
0	5556	-0.0059289271011948586
0	5584	0.005178025458008051
0	5590	0.0011075014481320977
0	5594	0.0007369920494966209
0	5614	0.0036790857557207346
0	5654	0.007347448263317347
0	5662	0.00146681338082999
0	5696	0.006222851108759642
0	5742	0.008402644656598568
0	5784	0.007655200082808733
0	5780	-0.0007268938352353871
0	5784	0.0007245064480230212
0	5710	-0.013361259363591671
0	5586	-0.022327592596411705
0	5372	-0.03846384212374687
0	5172	-0.0359242707490921
0	5000	-0.030935993418097496
0	4890	-0.019930904731154442
0	4854	-0.006602113135159016
0	4870	0.0029499975498765707
0	4914	0.008048780262470245
0	4990	0.013892442919313908
0	5036	0.008428612723946571
0	5046	0.0018374247010797262
0	5090	0.008107311092317104
0	5138	0.008869289420545101
0	5172	0.006297851447016001
0	5182	0.0018565735081210732
0	5226	0.008188281208276749
0	5248	0.004102538805454969
0	5252	0.0007474958547390997
0	5264	0.0022467421367764473
0	5244	-0.003752063727006316
0	5250	0.0011280598118901253
0	5278	0.00527565274387598
0	5318	0.007552584633231163
0	5334	0.003027436090633273
0	5350	0.003033712040632963
0	5366	0.003040360752493143
0	5322	-0.008380952291190624
0	5416	0.01795743592083454
0	5426	0.0019148039864376187
0	5336	-0.01727270521223545
0	5308	-0.005386617965996265
0	5284	-0.004625346977263689
0	5260	-0.004627963062375784
0	5316	0.010792476125061512
0	5296	-0.003846646985039115
0	5500	0.039133936166763306
0	6406	0.1730857491493225
0	6894	0.092326320707798
1	5704	-0.2223633974790573
0	3388	-0.43085166811943054
0	4568	0.2217850536108017
0	5374	0.15194551646709442
0	5478	0.01957094483077526
0	5532	0.010140210390090942
0	5512	-0.0037471894174814224
0	5530	0.003365534357726574
0	5568	0.007091580890119076
0	5590	0.004097495693713427
0	5606	0.00297375675290823
0	5570	-0.006676805671304464
0	5566	-0.0007403751369565725
0	5574	0.0014778688782826066
0	5598	0.00442554010078311
0	5598	0.0
0	5616	0.0033080936409533024
0	5672	0.010275103151798248
0	5694	0.00402910728007555
0	5746	0.009501766413450241
0	5790	0.008023828268051147
0	5820	0.005458713974803686
0	5838	0.003265641862526536
0	5776	-0.011212384328246117
0	5720	-0.010097367689013481
0	5610	-0.019779428839683533
0	5396	-0.038412291556596756
0	5166	-0.04125955328345299
0	4980	-0.03343319147825241
0	4850	-0.023568658158183098
0	4822	-0.005139815155416727
0	4826	0.0007382434559985995
0	4876	0.00914712157100439
0	4924	0.008764775469899178
0	4988	0.011718464083969593
0	5036	0.008815211243927479
0	5054	0.0033157719299197197
0	5116	0.011453201994299889
0	5134	0.0033336214255541563
0	5170	0.00668515358120203
0	5156	-0.0026065583806484938
0	5216	0.011202249675989151
0	5238	0.004116561263799667
0	5246	0.0014999998966231942
0	5254	0.0015030812937766314
0	5256	0.0003765816509258002
0	5248	-0.0015095669077709317
0	5264	0.0030261382926255465
0	5274	0.001896213972941041
0	5304	0.005703783594071865
0	5300	-0.000762640789616853
0	5352	0.009945300407707691
0	5378	0.004987531341612339
0	5372	-0.0011543642031028867
0	5420	0.009258901700377464
0	5428	0.0015461327275261283
0	5344	-0.016253450885415077
0	5300	-0.008516568690538406
0	5304	0.0007735647377558053
0	5288	-0.0030878097750246525
0	5314	0.00500359246507287
0	5274	-0.007673615589737892
0	5798	0.10023719817399979
0	6776	0.18599048256874084
0	6224	-0.10375809669494629
1	4258	-0.36670440435409546
0	4196	-0.011620641686022282
0	5268	0.20200751721858978
0	5498	0.04329982399940491
0	5536	0.007137580309063196
0	5526	-0.0018740161322057247
0	5560	0.006356962025165558
0	5570	0.0018656948814168572
0	5578	0.0014894804917275906
0	5596	0.003344440134242177
0	5588	-0.0014832760207355022
0	5604	0.0029604777228087187
0	5574	-0.005538734141737223
0	5600	0.004791095852851868
0	5620	0.003678093198686838
0	5618	-0.00036709822597913444
0	5660	0.007694092579185963
0	5690	0.005485463421791792
0	5752	0.011315107345581055
0	5788	0.00655490905046463
0	5828	0.007267001550644636
0	5836	0.0014498882228508592
0	5830	-0.0010841935873031616
0	5804	-0.004683222156018019
0	5690	-0.02047266811132431
0	5510	-0.03224766254425049
0	5272	-0.0425887256860733
0	5064	-0.03722084313631058
0	4890	-0.03127359226346016
0	4800	-0.01636086031794548
0	4818	0.0033006526064127684
0	4802	-0.0029239053837955
0	4894	0.016750620678067207
0	4924	0.005474585574120283
0	4990	0.012086289003491402
0	5018	0.005144663155078888
0	5048	0.005529342219233513
0	5092	0.008135292679071426
0	5134	0.007788450922816992
0	5152	0.0033470937050879
0	5182	0.00559388380497694
0	5214	0.005981904454529285
0	5226	0.00224867882207036
0	5238	0.0022535775788128376
0	5232	-0.0011293480638414621
0	5268	0.006792623549699783
0	5264	-0.0007564010447822511
0	5294	0.005687203723937273
0	5274	-0.0038009807467460632
0	5278	0.0007625051075592637
0	5308	0.0057373810559511185
0	5322	0.0026863496750593185
0	5354	0.006160480435937643
0	5372	0.0034758877009153366
0	5404	0.0061965868808329105
0	5370	-0.006596050225198269
0	5456	0.01669924519956112
0	5468	0.0023273553233593702
0	5380	-0.017022812739014626
0	5326	-0.010412917472422123
0	5322	-0.0007687281467951834
0	5270	-0.009961304254829884
0	5286	0.003055884502828121
0	5312	0.004953450057655573
0	5644	0.06309628486633301
0	6686	0.1972140222787857
0	6424	-0.049071021378040314
1	5182	-0.2306378036737442
1	3338	-0.34223777055740356
0	5272	0.3629743456840515
0	5468	0.036757808178663254
0	5526	0.010857898741960526
0	5534	0.001494731055572629
0	5524	-0.001864836667664349
0	5554	0.005584581755101681
0	5548	-0.0011146891629323363
0	5562	0.0025964390952140093
0	5580	0.003332140389829874
0	5554	-0.004804612137377262
0	5576	0.004058441612869501
0	5564	-0.0022096463944762945
0	5590	0.004780056420713663
0	5592	0.00036709371488541365
0	5628	0.006598079111427069
0	5654	0.004757838323712349
0	5720	0.012059199623763561
0	5764	0.008022365160286427
0	5774	0.0018198583275079727
0	5794	0.0036329729482531548
0	5848	0.009784500114619732
0	5834	-0.002528749406337738
0	5762	-0.01296503096818924
0	5630	-0.023699235171079636
0	5426	-0.036550842225551605
0	5176	-0.04476222023367882
0	4962	-0.03842378407716751
0	4820	-0.02576197311282158
0	4778	-0.007694374769926071
0	4812	0.006244183983653784
0	4836	0.004368242807686329
0	4912	0.013869456946849823
0	4956	0.008056935854256153
0	4982	0.004777538124471903
0	5076	0.017331235110759735
0	5092	0.0029581424314528704
0	5144	0.009641413576900959
0	5156	0.0022305110469460487
0	5170	0.002608825219795108
0	5182	0.002241845242679119
0	5204	0.004119592718780041
0	5204	0.0
0	5250	0.008653231896460056
0	5240	-0.0018851562635973096
0	5284	0.008313075639307499
0	5276	-0.0015147499507293105
0	5296	0.0037959308829158545
0	5306	0.0019030703697353601
0	5296	-0.0019086155807599425
0	5326	0.005743312183767557
0	5310	-0.0030722753144800663
0	5346	0.006936505436897278
0	5382	0.006958314683288336
0	5390	0.0015500872395932674
0	5442	0.010091208852827549
0	5408	-0.006597415544092655
0	5480	0.013950063847005367
0	5486	0.0011586291948333383
0	5410	-0.014613323844969273
0	5330	-0.015320388600230217
0	5304	-0.004962715785950422
0	5322	0.0034255266655236483
0	5276	-0.008731413632631302
0	5298	0.004167456179857254
0	5376	0.014746102504432201
0	5918	0.10227315872907639
0	6830	0.17120115458965302
0	6330	-0.09288040548563004
1	4834	-0.27589258551597595
1	3762	-0.19810761511325836
0	5336	0.29344502091407776
0	5506	0.03166757896542549
0	5526	0.0037186238914728165
0	5524	-0.0003712274192366749
0	5542	0.003335186280310154
0	5532	-0.0018499334109947085
0	5554	0.004063439089804888
0	5564	0.0018440884305164218
0	5546	-0.0033141032326966524
0	5554	0.0014706783695146441
0	5558	0.0007343132165260613
0	5594	0.0065988050773739815
0	5582	-0.0021962737664580345
0	5570	-0.0021935971453785896
0	5630	0.010955968871712685
0	5656	0.004742159973829985
0	5696	0.007284647785127163
0	5746	0.00909388530999422
0	5762	0.0029054635670036077
0	5790	0.005073750391602516
0	5798	0.0014456264907494187
0	5774	-0.004324012901633978
0	5686	-0.015811791643500328
0	5516	-0.030470682308077812
0	5246	-0.04833166301250458
0	5050	-0.03511244058609009
0	4894	-0.028092248365283012
0	4782	-0.020405931398272514
0	4822	0.007356998510658741
0	4824	0.0003678769862744957
0	4874	0.009137426503002644
0	4940	0.012095443904399872
0	4992	0.009562808088958263
0	5030	0.007011156529188156
0	5028	-0.0003701327368617058
0	5086	0.010767992585897446
0	5130	0.008191430941224098
0	5098	-0.0059731206856667995
0	5168	0.013104197569191456
0	5182	0.0026270358357578516
0	5204	0.0041378275491297245
0	5218	0.00263901986181736
0	5234	0.003023164812475443
0	5260	0.004923434462398291
0	5248	-0.0022768094204366207
0	5272	0.004564647097140551
0	5316	0.00838894210755825
0	5312	-0.0007644772413186729
0	5314	0.00038329840754158795
0	5334	0.0038439854979515076
0	5422	0.016963092610239983
0	5386	-0.006956252735108137
0	5422	0.006973681040108204
0	5460	0.007373677100986242
0	5394	-0.012811553664505482
0	5322	-0.01396286953240633
0	5310	-0.0023230602964758873
0	5302	-0.0015445605386048555
0	5298	-0.000769704463891685
0	5302	0.000767361605539918
0	5400	0.018743066117167473
0	6050	0.12390077859163284
0	6992	0.1783032864332199
0	6212	-0.14579984545707703
1	3758	-0.45535513758659363
0	4264	0.09463486075401306
0	5160	0.1684379279613495
0	5434	0.05149924010038376
0	5522	0.016505157575011253
0	5522	0.0
0	5540	0.0033614702988415956
0	5538	-0.0003727170987986028
0	5534	-0.0007439553737640381
0	5540	0.0011138614499941468
0	5524	-0.0029651594813913107
0	5544	0.0037001403979957104
0	5586	0.00775728328153491
0	5572	-0.0025814699474722147
0	5576	0.0007363861077465117
0	5586	0.0018380101537331939
0	5622	0.006606635637581348
0	5634	0.002199521055445075
0	5674	0.007320644333958626
0	5688	0.0025582925882190466
0	5714	0.004744525533169508
0	5796	0.014934434555470943
0	5772	-0.004358511883765459
0	5774	0.00036219635512679815
0	5728	-0.008306847885251045
0	5546	-0.03278137370944023
0	5344	-0.03633049875497818
0	5154	-0.03418372571468353
0	4984	-0.03075067698955536
0	4892	-0.016845498234033585
0	4796	-0.017720678821206093
0	4870	0.013573001138865948
0	4890	0.003654837142676115
0	4954	0.011714745312929153
0	4974	0.0036716109607368708
0	5020	0.00847311969846487
0	5086	0.012194670736789703
0	5114	0.005188003182411194
0	5128	0.0026008125860244036
0	5166	0.007077140733599663
0	5206	0.007466958835721016
0	5204	-0.0003740881511475891
0	5236	0.0059981257654726505
0	5262	0.004884157795459032
0	5248	-0.0026350461412221193
0	5268	0.003772113937884569
0	5288	0.003779670223593712
0	5284	-0.0007575278868898749
0	5302	0.0034164241515100002
0	5324	0.004185480065643787
0	5372	0.009153085760772228
0	5358	-0.0026754660066217184
0	5390	0.006132461130619049
0	5426	0.006915895268321037
0	5386	-0.007701490540057421
0	5322	-0.012349491007626057
0	5314	-0.0015459137503057718
0	5284	-0.005798297002911568
0	5306	0.004248525947332382
0	5276	-0.005781460553407669
0	5336	0.011534469202160835
0	5852	0.09885436296463013
0	6872	0.19419200718402863
0	6404	-0.0879930779337883
1	4538	-0.3476845920085907
0	3748	-0.14759734272956848
0	4958	0.22787193953990936
0	5410	0.08519086241722107
0	5530	0.02257506176829338
0	5526	-0.0007506098481826484
0	5550	0.004493540618568659
0	5534	-0.002989275846630335
0	5542	0.0014915725914761424
0	5546	0.0007443707436323166
0	5554	0.0014861233066767454
0	5538	-0.0029666253831237555
0	5554	0.0029616830870509148
0	5542	-0.002217622706666589
0	5604	0.011439536698162556
0	5580	-0.004419997800141573
0	5604	0.004413062706589699
0	5640	0.006610194221138954
0	5678	0.006965405307710171
0	5690	0.0021957377903163433
0	5754	0.011691776104271412
0	5826	0.013123837299644947
0	5782	-0.007995638996362686
0	5764	-0.003261696780100465
0	5708	-0.010118165984749794
0	5526	-0.032804615795612335
0	5380	-0.026276320219039917
0	5162	-0.039224155247211456
0	4994	-0.030353400856256485
0	4886	-0.019736120477318764
0	4842	-0.008115685544908047
0	4832	-0.0018410328775644302
0	4844	0.002194640226662159
0	4904	0.01098083145916462
0	4950	0.008444705046713352
0	4996	0.008474783971905708
0	5028	0.005914753302931786
0	5086	0.010755081661045551
0	5116	0.005578420124948025
0	5158	0.007830464281141758
0	5166	0.0014951220946386456
0	5182	0.002997489646077156
0	5206	0.004506252706050873
0	5234	0.005268769804388285
0	5230	-0.000754138280171901
0	5222	-0.0015118300216272473
0	5250	0.0053033651784062386
0	5276	0.004935584496706724
0	5284	0.0015221472131088376
0	5330	0.008774272166192532
0	5360	0.005735479760915041
0	5342	-0.003449950134381652
0	5428	0.016534222289919853
0	5414	-0.0026977378875017166
0	5320	-0.018154194578528404
0	5302	-0.0034850402735173702
0	5266	-0.006980170961469412
0	5272	0.0011642196914181113
0	5284	0.0023267837241292
0	5292	0.0015482872258871794
0	5568	0.053276367485523224
0	6500	0.17906777560710907
0	6602	0.0193904060870409
1	5130	-0.2767472267150879
1	3588	-0.2894977331161499
0	5074	0.2813825309276581
0	5464	0.07381238043308258
0	5506	0.007927220314741135
0	5562	0.010541771538555622
0	5534	-0.005256175994873047
0	5562	0.005243838299065828
0	5584	0.004109998699277639
0	5574	-0.0018635160522535443
0	5588	0.002602972323074937
0	5578	-0.0018551958492025733
0	5596	0.003332181368023157
0	5574	-0.004063288681209087
0	5608	0.006267127115279436
0	5604	-0.00073580804746598
0	5606	0.00036718358751386404
0	5666	0.010996932163834572
0	5700	0.006219967268407345
0	5786	0.015698585659265518
0	5806	0.003642898751422763
0	5826	0.0036342490930110216
0	5856	0.005434716586023569
0	5780	-0.013722044415771961
0	5714	-0.011879762634634972
0	5484	-0.04128967598080635
0	5262	-0.03980587050318718
0	5066	-0.03515022248029709
0	4930	-0.024463364854454994
0	4862	-0.012347920797765255
0	4826	-0.00660671666264534
0	4834	0.0014708946691825986
0	4876	0.007663674186915159
0	4918	0.007672914769500494
0	4970	0.009531490504741669
0	5000	0.005517004523426294
0	5058	0.01070308219641447
0	5086	0.005182178225368261
0	5152	0.01225111074745655
0	5204	0.009678259491920471
0	5182	-0.00410406943410635
0	5240	0.010847204364836216
0	5242	0.0003748313174583018
0	5238	-0.0007513242308050394
0	5286	0.009034897200763226
0	5278	-0.0015088645741343498
0	5302	0.004535890184342861
0	5266	-0.0068168905563652515
0	5300	0.006454471033066511
0	5330	0.005709572695195675
0	5372	0.00801659282296896
0	5338	-0.006507592275738716
0	5416	0.014975808560848236
0	5410	-0.0011552383657544851
0	5356	-0.010421893559396267
0	5280	-0.01470171008259058
0	5260	-0.0038739670999348164
0	5272	0.0023244102485477924
0	5268	-0.0007737741689197719
0	5282	0.0027023199945688248
0	5696	0.07969610393047333
0	6576	0.1684618890285492
0	6052	-0.09920860826969147
1	4848	-0.22627325356006622
0	4110	-0.13875658810138702
0	5214	0.208695650100708
0	5512	0.056256841868162155
0	5540	0.005270819645375013
0	5548	0.0015016706893220544
0	5568	0.0037448974326252937
0	5564	-0.00074728176696226
0	5564	0.0
0	5546	-0.003348048310726881
0	5546	0.0
0	5582	0.006670784670859575
0	5572	-0.0018496140837669373
0	5580	0.0014770139241591096
0	5576	-0.0007372456602752209
0	5608	0.005886754021048546
0	5622	0.002570599550381303
0	5646	0.004398880992084742
0	5690	0.008051136508584023
0	5712	0.004016944207251072
0	5796	0.015309842303395271
0	5830	0.006182342767715454
0	5834	0.0007252508075907826
0	5830	-0.0007228306494653225
0	5778	-0.00936464499682188
0	5652	-0.02262253873050213
0	5432	-0.039409101009368896
0	5166	-0.04760654643177986
0	4966	-0.03590793162584305
0	4850	-0.021029222756624222
0	4834	-0.0029218050185590982
0	4834	0.0
0	4872	0.006909425836056471
0	4924	0.00947464257478714
0	4956	0.005851446185261011
0	5010	0.00990959070622921
0	5054	0.008101141080260277
0	5084	0.005540984682738781
0	5160	0.014078766107559204
0	5166	0.0011142613366246223
0	5182	0.0029783693607896566
0	5206	0.0044776676222682
0	5252	0.008602311834692955
0	5248	-0.0007495221798308194
0	5270	0.004130938556045294
0	5304	0.006396427750587463
0	5290	-0.0026388538535684347
0	5336	0.008688644506037235
0	5370	0.006434600800275803
0	5330	-0.007585430983453989
0	5412	0.01558777317404747
0	5404	-0.001524467719718814
0	5366	-0.0072608692571520805
0	5280	-0.01648162119090557
0	5252	-0.005385029595345259
0	5262	0.0019297319231554866
0	5272	0.0019345851615071297
0	5254	-0.0034858500584959984
0	5438	0.03561290353536606
0	6476	0.20029330253601074
0	6194	-0.05385173484683037
1	4860	-0.25255903601646423
0	3788	-0.20292270183563232
0	5098	0.24968235194683075
0	5460	0.06892000138759613
0	5546	0.016321057453751564
0	5534	-0.0022696610540151596
0	5552	0.0033942197915166616
0	5562	0.0018801469122990966
0	5570	0.0015003376174718142
0	5610	0.00748278945684433
0	5570	-0.007462872192263603
0	5590	0.003723008092492819
0	5582	-0.001486086519435048
0	5598	0.0029660388827323914
0	5614	0.0029600393027067184
0	5630	0.00295439176261425
0	5666	0.006633499171584845
0	5670	0.000735564564820379
0	5708	0.006975036580115557
0	5762	0.009889023378491402
0	5810	0.008771502412855625
0	5826	0.0029166212771087885
0	5822	-0.0007271228823810816
0	5794	-0.005073199048638344
0	5700	-0.0169758852571249
0	5442	-0.04647085815668106
0	5234	-0.037426676601171494
0	5044	-0.034191928803920746
0	4860	-0.03319063037633896
0	4824	-0.00655753631144762
0	4816	-0.0014694536803290248
0	4824	0.00146984972525388
0	4870	0.008398349396884441
0	4942	0.013163507916033268
0	4982	0.0073362188413739204
0	5044	0.011410483159124851
0	5072	0.0051686582155525684
0	5110	0.007035386748611927
0	5152	0.0077977050095796585
0	5152	0.0
0	5182	0.005600149277597666
0	5214	0.005987949203699827
0	5216	0.0003751266049221158
0	5254	0.007143752183765173
0	5236	-0.0033911929931491613
0	5248	0.0022661748807877302
0	5234	-0.0026502436958253384
0	5290	0.010629951022565365
0	5338	0.009133346378803253
0	5360	0.004195964429527521
0	5354	-0.0011472860351204872
0	5368	0.002684804145246744
0	5424	0.010770750232040882
0	5362	-0.011955264024436474
0	5306	-0.010828370228409767
0	5282	-0.0046525453217327595
0	5236	-0.00892660766839981
0	5262	0.005045408383011818
0	5286	0.004650742281228304
0	5280	-0.0011594949755817652
0	5600	0.06165861710906029
0	6794	0.22891104221343994
1	5892	-0.17077943682670593
0	3436	-0.4620246887207031
0	4330	0.16978336870670319
0	5338	0.19222702085971832
0	5512	0.03312014415860176
0	5550	0.007212998811155558
0	5548	-0.00037857756251469254
0	5592	0.008307947777211666
0	5596	0.0007531822193413973
0	5592	-0.0007512301090173423
0	5600	0.0014989132760092616
0	5604	0.0007476635510101914
0	5570	-0.006341312080621719
0	5610	0.007444907911121845
0	5610	0.0
0	5616	0.0011116464156657457
0	5650	0.006286672316491604
0	5658	0.001476377947255969
0	5698	0.007368382066488266
0	5718	0.0036764254327863455
0	5782	0.011739385314285755
0	5800	0.0032944909762591124
0	5822	0.004015868995338678
0	5824	0.000363936327630654
0	5762	-0.011245057918131351
0	5670	-0.01663331873714924
0	5502	-0.030299387872219086
0	5276	-0.04070702940225601
0	5054	-0.039987511932849884
0	4914	-0.025300290435552597
0	4842	-0.01316062081605196
0	4812	-0.0055188992992043495
0	4850	0.0069321137852966785
0	4902	0.009456149302423
0	4960	0.010575193911790848
0	4998	0.006951897870749235
0	5022	0.004405501764267683
0	5058	0.006629589945077896
0	5112	0.009977090172469616
0	5152	0.007412532344460487
0	5152	0.0
0	5182	0.0055900621227920055
0	5206	0.004483802244067192
0	5202	-0.0007489981944672763
0	5242	0.007509104907512665
0	5232	-0.0018816090887412429
0	5262	0.0056584556587040424
0	5312	0.009453820995986462
0	5314	0.00037897928268648684
0	5338	0.004558808635920286
0	5390	0.009901241399347782
0	5378	-0.002290600910782814
0	5284	-0.01799134910106659
0	5242	-0.008066374808549881
0	5256	0.0026988473255187273
0	5254	-0.00038680731086060405
0	5260	0.0011635423870757222
0	5266	0.0011653653346002102
0	5604	0.06565316766500473
0	6494	0.17226028442382812
0	6174	-0.06131129711866379
1	4464	-0.3248686194419861
0	3844	-0.1180487647652626
0	5076	0.23608165979385376
0	5478	0.07694761455059052
0	5520	0.008012820035219193
0	5552	0.006084807217121124
0	5590	0.007201516535133123
0	5540	-0.009443940594792366
0	5580	0.007534848991781473
0	5582	0.0003757326921913773
0	5562	-0.0037472364492714405
0	5568	0.0011215093545615673
0	5568	0.0
0	5610	0.007815116085112095
0	5628	0.0033417080994695425
0	5638	0.0018519662553444505
0	5614	-0.004434425849467516
0	5656	0.007745838258415461
0	5688	0.0058892094530165195
0	5710	0.004040156491100788
0	5782	0.013196481391787529
0	5814	0.005850661545991898
0	5778	-0.006560802925378084
0	5754	-0.0043596732430160046
0	5638	-0.021008402109146118
0	5502	-0.02457357570528984
0	5304	-0.03572416678071022
0	5080	-0.040405984967947006
0	4958	-0.022076386958360672
0	4852	-0.0193604938685894
0	4832	-0.003682563081383705
0	4842	0.0018371321493759751
0	4872	0.005477917846292257
0	4962	0.0164541844278574
0	4998	0.00660243583843112
0	5058	0.01103928778320551
0	5128	0.012918307445943356
0	5112	-0.002961171558126807
0	5164	0.009649286046624184
0	5182	0.0033487542532384396
0	5236	0.010071245022118092
0	5218	-0.003363899188116193
0	5260	0.007866248488426208
0	5268	0.0015012196963652968
0	5284	0.0030088762287050486
0	5348	0.01206151396036148
0	5326	-0.004153712652623653
0	5398	0.01361865270882845
0	5372	-0.004925859626382589
0	5312	-0.011390098370611668
0	5270	-0.007993198931217194
0	5234	-0.006873639766126871
0	5246	0.002299702260643244
0	5258	0.0023075442295521498
0	5246	-0.0023149042390286922
0	5386	0.02707546204328537
0	6116	0.14128485321998596
0	6696	0.11166874319314957
1	5718	-0.1863638162612915
1	3544	-0.41227859258651733
0	4856	0.2508828043937683
0	5478	0.1189216747879982
0	5540	0.011806076392531395
0	5572	0.0060677314177155495
0	5560	-0.0022666598670184612
0	5578	0.003388001350685954
0	5578	0.0
0	5594	0.0029933396726846695
0	5578	-0.002984369406476617
0	5614	0.006697590928524733
0	5612	-0.00037109421100467443
0	5634	0.004072565585374832
0	5608	-0.004800708964467049
0	5640	0.005895936395972967
0	5624	-0.0029412484727799892
0	5610	-0.00256824167445302
0	5666	0.010256536304950714
0	5698	0.005848736967891455
0	5756	0.01058149617165327
0	5802	0.00837266817688942
0	5788	-0.0025406505446881056
0	5796	0.0014472652692347765
0	5794	-0.00036059427657164633
0	5662	-0.02372109889984131
0	5508	-0.02760780230164528
0	5294	-0.03830411657691002
0	5100	-0.03474336490035057
0	4906	-0.03495537489652634
0	4866	-0.007285620551556349
0	4852	-0.002563226269558072
0	4874	0.00399602809920907
0	4936	0.01126030646264553
0	4986	0.009110786952078342
0	5016	0.005484928842633963
0	5100	0.015410016290843487
0	5134	0.00625498266890645
0	5174	0.007378893904387951
0	5182	0.001479454105719924
0	5202	0.003708052681759
0	5254	0.00966339185833931
0	5262	0.0014899984234943986
0	5286	0.004479729104787111
0	5298	0.00224472489207983
0	5268	-0.005622680764645338
0	5378	0.0206645205616951
0	5348	-0.00564447371289134
0	5248	-0.018845878541469574
0	5210	-0.0071802884340286255
0	5206	-0.0007581501267850399
0	5226	0.003803968895226717
0	5234	0.001527164364233613
0	5230	-0.0007662835414521396
0	5436	0.03960675373673439
0	6258	0.15840591490268707
0	6292	0.006527080666273832
1	4788	-0.28728604316711426
1	3624	-0.22305971384048462
0	5248	0.3141725957393646
0	5526	0.05366243049502373
0	5550	0.00461313733831048
0	5564	0.0026790157426148653
0	5568	0.0007620789692737162
0	5554	-0.0026566137094050646
0	5552	-0.00037815762334503233
0	5564	0.0022613066248595715
0	5576	0.002254734979942441
0	5602	0.004871772602200508
0	5638	0.0067275469191372395
0	5612	-0.004845021292567253
0	5630	0.003345724893733859
0	5614	-0.002967065665870905
0	5658	0.008141715079545975
0	5706	0.008861538954079151
0	5726	0.00368306040763855
0	5768	0.007712743245065212
0	5770	0.0003663988027255982
0	5784	0.0025581989903002977
0	5780	-0.0007285355241037905
0	5722	-0.010527334176003933
0	5640	-0.014837153255939484
0	5394	-0.044400591403245926
0	5182	-0.038227129727602005
0	5008	-0.031384147703647614
0	4900	-0.019530072808265686
0	4876	-0.004375835880637169
0	4870	-0.0011034549679607153
0	4902	0.005882136523723602
0	4948	0.00838987436145544
0	4990	0.007674316875636578
0	5046	0.010265937075018883
0	5076	0.005516598932445049
0	5152	0.014017312787473202
0	5160	0.001479289960116148
0	5200	0.007414455525577068
0	5202	0.00037153082666918635
0	5262	0.011170964688062668
0	5268	0.001119277672842145
0	5312	0.00822511874139309
0	5310	-0.000374630035366863
0	5330	0.0037533780559897423
0	5356	0.004888565745204687
0	5328	-0.005273136310279369
0	5250	-0.014719944447278976
0	5214	-0.00681336410343647
0	5208	-0.0011392405722290277
0	5246	0.007240853738039732
0	5248	0.00038237019907683134
0	5232	-0.003069446422159672
0	5546	0.060449715703725815
0	6438	0.17191757261753082
0	6434	-0.0007669986225664616
1	4944	-0.28382036089897156
1	3596	-0.2571603059768677
0	5182	0.3053053021430969
0	5536	0.0680219829082489
0	5552	0.0030614978168159723
0	5546	-0.0011430894955992699
0	5538	-0.0015179113252088428
0	5574	0.0068052071146667
0	5558	-0.0030134476255625486
0	5576	0.003379266243427992
0	5584	0.0014972115168347955
0	5568	-0.0029863747768104076
0	5592	0.004468219820410013
0	5598	0.0011143441079184413
0	5602	0.0007410792750306427
0	5616	0.0025883426424115896
0	5628	0.002213831525295973
0	5670	0.007733382284641266
0	5724	0.00992099940776825
0	5758	0.006231519393622875
0	5802	0.008044562302529812
0	5750	-0.0094798244535923
0	5748	-0.0003635041939560324
0	5740	-0.0014493279159069061
0	5598	-0.025643186643719673
0	5362	-0.04252814128994942
0	5178	-0.03313484415411949
0	4974	-0.03674837201833725
0	4922	-0.009399515576660633
0	4866	-0.010215871036052704
0	4862	-0.000736729649361223
0	4920	0.010687961243093014
0	4976	0.010236163623631
0	5002	0.004758477210998535
0	5038	0.006610194221138954
0	5084	0.008473015390336514
0	5112	0.005172159057110548
0	5136	0.0044449386186897755
0	5160	0.004456990398466587
0	5182	0.0040956647135317326
0	5232	0.009331143461167812
0	5268	0.006733167450875044
0	5270	0.0003747657756321132
0	5254	-0.0030041683930903673
0	5340	0.016182243824005127
0	5298	-0.007915965281426907
0	5260	-0.0071764010936021805
0	5182	-0.014764711260795593
0	5182	0.0
0	5182	0.0
0	5214	0.006119326688349247
0	5232	0.0034550712443888187
0	5384	0.029273176565766335
0	6322	0.18106941878795624
0	6622	0.05769526585936546
1	5282	-0.25602486729621887
1	3604	-0.32076770067214966
0	5182	0.30470770597457886
0	5468	0.05515202507376671
0	5526	0.011145558208227158
0	5510	-0.003061693161725998
0	5512	0.0003811362839769572
0	5530	0.0034173752646893263
0	5534	0.0007567636203020811
0	5546	0.002262699417769909
0	5578	0.006014660466462374
0	5568	-0.0018737821374088526
0	5564	-0.0007473841542378068
0	5592	0.0052177803590893745
0	5602	0.0018585057696327567
0	5618	0.002965892432257533
0	5630	0.002219126559793949
0	5664	0.006273525767028332
0	5680	0.002945110434666276
0	5714	0.006242044735699892
0	5744	0.005495109595358372
0	5732	-0.0021920744329690933
0	5746	0.002550091128796339
0	5652	-0.017063608393073082
0	5532	-0.021721553057432175
0	5350	-0.032874930649995804
0	5182	-0.030321262776851654
0	5036	-0.026358548551797867
0	4924	-0.020262692123651505
0	4912	-0.002189461374655366
0	4908	-0.0007374903652817011
0	4958	0.009239866398274899
0	5016	0.01062958873808384
0	5034	0.0033021869603544474
0	5108	0.013611781410872936
0	5134	0.00479480717331171
0	5162	0.0051756007596850395
0	5178	0.002963877748697996
0	5202	0.00445550074800849
0	5252	0.009301402606070042
0	5272	0.003727356204763055
0	5322	0.009336138144135475
0	5272	-0.009350454434752464
0	5312	0.007494004443287849
0	5354	0.007882488891482353
0	5322	-0.006015037652105093
0	5250	-0.013558981940150261
0	5214	-0.0067957011051476
0	5222	0.0015144440112635493
0	5210	-0.002278250176459551
0	5230	0.0038092336617410183
0	5226	-0.0007643409771844745
0	5420	0.03719040006399155
0	6536	0.21438725292682648
0	6260	-0.05272206291556358
1	4666	-0.3030840754508972
1	3722	-0.18027423322200775
0	5364	0.3165118396282196
0	5512	0.028468472883105278
0	5566	0.010348130948841572
0	5540	-0.004961705766618252
0	5556	0.0030411311890929937
0	5558	0.00037870657979510725
0	5580	0.004151569679379463
0	5582	0.00037612367304973304
0	5576	-0.0011250281240791082
0	5592	0.0029918099753558636
0	5596	0.000745953235309571
0	5600	0.0007440199260599911
0	5626	0.0048242248594760895
0	5636	0.0018511891830712557
0	5638	0.00036940808058716357
0	5660	0.0040555982850492
0	5742	0.015080368146300316
0	5774	0.005869549233466387
0	5812	0.006952236872166395
0	5788	-0.004377804230898619
0	5790	0.0003636275650933385
0	5706	-0.015219229273498058
0	5570	-0.024568840861320496
0	5382	-0.03388934209942818
0	5182	-0.036019597202539444
0	5030	-0.027382124215364456
0	4930	-0.0180568415671587
0	4874	-0.010210531763732433
0	4874	0.0
0	4904	0.0055093723349273205
0	4954	0.009116324596107006
0	4998	0.008042405359447002
0	5038	0.0073342458344995975
0	5076	0.006990091409534216
0	5128	0.009592680260539055
0	5174	0.008508224971592426
0	5152	-0.004078807309269905
0	5222	0.01301244180649519
0	5250	0.005216613411903381
0	5286	0.006720680743455887
0	5374	0.016459673643112183
0	5320	-0.010114253498613834
0	5318	-0.00037525800871662796
0	5358	0.0075196451507508755
0	5366	0.0015065534971654415
0	5292	-0.013959454372525215
0	5224	-0.01285735983401537
0	5218	-0.0011381887597963214
0	5220	0.000380734825739637
0	5224	0.0007643409771844745
0	5254	0.005753224715590477
0	5774	0.10006542503833771
0	6644	0.16734416782855988
0	5950	-0.13257768750190735
1	4238	-0.3258717656135559
0	4674	0.0834907814860344
0	5448	0.14855286478996277
0	5522	0.014155816286802292
0	5554	0.00609624432399869
0	5578	0.0045525250025093555
0	5546	-0.006044274196028709
0	5590	0.008280014619231224
0	5578	-0.002249831333756447
0	5600	0.004110817797482014
0	5560	-0.007449899334460497
0	5604	0.008172969333827496
0	5590	-0.002593585290014744
0	5596	0.0011085382429882884
0	5620	0.004423962906002998
0	5604	-0.002942618913948536
0	5672	0.012481797486543655
0	5692	0.003664435353130102
0	5736	0.008043483830988407
0	5772	0.006564311683177948
0	5792	0.0036376863718032837
0	5802	0.0018141575856134295
0	5796	-0.0010851479601114988
0	5732	-0.01153513416647911
0	5590	-0.025514788925647736
0	5342	-0.04446250572800636
0	5160	-0.03260675072669983
0	4998	-0.029039891436696053
0	4914	-0.01512786652892828
0	4850	-0.011646951548755169
0	4870	0.003664121963083744
0	4904	0.0062050591222941875
0	4950	0.008383349515497684
0	4980	0.005483992863446474
0	4994	0.002567676594480872
0	5106	0.020611979067325592
0	5144	0.007013658061623573
0	5138	-0.0011101653799414635
0	5182	0.00816397275775671
0	5182	0.0
0	5234	0.009697150439023972
0	5250	0.0029897973872721195
0	5300	0.00936376303434372
0	5296	-0.0007504596142098308
0	5338	0.007894637994468212
0	5358	0.00376600562594831
0	5338	-0.003771829418838024
0	5386	0.009071437641978264
0	5348	-0.007195425219833851
0	5288	-0.011389088816940784
0	5254	-0.0064736418426036835
0	5230	-0.004585286136716604
0	5230	0.0
0	5260	0.005773449782282114
0	5228	-0.006177049595862627
0	5570	0.06617134809494019
0	6598	0.19860896468162537
0	6292	-0.0585765540599823
1	4628	-0.31592535972595215
0	3848	-0.148358553647995
0	5174	0.25382199883461
0	5492	0.06075349822640419
0	5548	0.010658816434442997
0	5552	0.0007584664272144437
0	5536	-0.0030229364056140184
0	5570	0.006401888094842434
0	5544	-0.004881345666944981
0	5546	0.0003745505237020552
0	5574	0.005230385810136795
0	5542	-0.0059630293399095535
0	5608	0.012271307408809662
0	5578	-0.005564968101680279
0	5590	0.0022214818745851517
0	5610	0.003695855615660548
0	5624	0.002582104876637459
0	5682	0.010678514838218689
0	5704	0.004042433574795723
0	5766	0.011366830207407475
0	5790	0.004389869049191475
0	5806	0.002918713726103306
0	5796	-0.0018184683285653591
0	5746	-0.009062567725777626
0	5682	-0.011564035899937153
0	5502	-0.032435547560453415
0	5284	-0.03922603651881218
0	5092	-0.034536100924015045
0	4934	-0.028502019122242928
0	4858	-0.013848396949470043
0	4846	-0.002205801196396351
0	4890	0.008077149279415607
0	4956	0.012038961984217167
0	4996	0.007306025363504887
0	5032	0.006595339626073837
0	5098	0.012129676528275013
0	5116	0.0033173200208693743
0	5182	0.012194971553981304
0	5182	0.0
0	5172	-0.0018562977202236652
0	5182	0.001860603573732078
0	5230	0.008952663280069828
0	5228	-0.0003737526130862534
0	5244	0.0029971152544021606
0	5252	0.0015016893157735467
0	5248	-0.0007524359971284866
0	5276	0.0052790348418056965
0	5272	-0.0007558008073829114
0	5332	0.011366362683475018
0	5344	0.0022786252666264772
0	5394	0.009519699960947037
0	5386	-0.001526989508420229
0	5422	0.00688986387103796
0	5438	0.003069485304877162
0	5386	-0.009995514526963234
0	5314	-0.01386624202132225
0	5300	-0.0026994715444743633
0	5256	-0.008483181707561016
0	5266	0.0019259657710790634
0	5282	0.0030749912839382887
0	5364	0.015716640278697014
0	6282	0.17536933720111847
0	6814	0.10073722153902054
1	5772	-0.19502152502536774
0	3296	-0.46117740869522095
0	4552	0.23649030923843384
0	5360	0.15266022086143494
0	5498	0.026033151894807816
0	5514	0.0030123505275696516
0	5554	0.007515218574553728
0	5552	-0.0003748641174752265
0	5554	0.00037399952998384833
0	5574	0.003732457524165511
0	5570	-0.0007448882097378373
0	5556	-0.0026018437929451466
0	5566	0.0018549663946032524
0	5588	0.004072917625308037
0	5606	0.003325983416289091
0	5596	-0.0018439750419929624
0	5614	0.003313777968287468
0	5650	0.00661659287288785
0	5678	0.00513818021863699
0	5688	0.001831792644225061
0	5768	0.014630577526986599
0	5768	0.0
0	5770	0.00036418373929336667
0	5784	0.002542249858379364
0	5738	-0.00832870602607727
0	5658	-0.014442692510783672
0	5478	-0.03241958096623421
0	5290	-0.033820655196905136
0	5034	-0.04607410356402397
0	4888	-0.026474855840206146
0	4842	-0.008439644239842892
0	4816	-0.004797520115971565
0	4890	0.013528007082641125
0	4926	0.006567665375769138
0	4960	0.006219209171831608
0	4974	0.0025692787021398544
0	5022	0.008838151581585407
0	5082	0.011083880439400673
0	5108	0.004816955421119928
0	5136	0.0052018179558217525
0	5214	0.014530190266668797
0	5210	-0.0007467888062819839
0	5220	0.0018710007425397635
0	5242	0.004125102888792753
0	5220	-0.0041340431198477745
0	5242	0.004144062753766775
0	5222	-0.003775722114369273
0	5252	0.005677588749676943
0	5266	0.002656210446730256
0	5276	0.001902249758131802
0	5308	0.006103143095970154
0	5280	-0.005355913192033768
0	5316	0.006907667499035597
0	5324	0.0015395075315609574
0	5324	0.0
0	5340	0.00309637445025146
0	5350	0.0019392120884731412
0	5396	0.008927762508392334
0	5538	0.027540728449821472
0	5466	-0.013918961398303509
0	5470	0.0007704060990363359
0	5434	-0.006905812304466963
0	5386	-0.009171507321298122
0	5318	-0.012952052056789398
0	5262	-0.010639914311468601
0	5270	0.0015170861734077334
0	5260	-0.0018928161589428782
0	5292	0.006047929637134075
0	5508	0.04076958820223808
0	6744	0.23270700871944427
0	6434	-0.057781919836997986
1	4820	-0.29857558012008667
1	3584	-0.22920015454292297
0	5240	0.3102208077907562
0	5482	0.04533476382493973
0	5530	0.008977332152426243
0	5558	0.005227391608059406
0	5524	-0.006334302015602589
0	5548	0.0044637322425842285
0	5574	0.004827270284295082
0	5552	-0.0040770941413939
0	5574	0.004070958122611046
0	5562	-0.002216503256931901
0	5566	0.0007377170259132981
0	5566	0.0
0	5616	0.009194105863571167
0	5610	-0.0011014293413609266
0	5626	0.002932479605078697
0	5646	0.0036604562774300575
0	5692	0.008413505740463734
0	5726	0.00621012132614851
0	5764	0.006929922383278608
0	5792	0.00509603600949049
0	5786	-0.0010893245926126838
0	5752	-0.006155405659228563
0	5730	-0.003971166908740997
0	5596	-0.024121254682540894
0	5414	-0.03269578516483307
0	5230	-0.03303094953298569
0	5022	-0.037401553243398666
0	4916	-0.01925918646156788
0	4840	-0.013936600647866726
0	4840	0.0
0	4888	0.008733942173421383
0	4930	0.007658550050109625
0	4964	0.006220650393515825
0	5006	0.00771094998344779
0	5044	0.0070002214051783085
0	5102	0.010716133750975132
0	5152	0.00926349125802517
0	5182	0.005572617053985596
0	5174	-0.0014894435880705714
0	5182	0.001493150251917541
0	5182	0.0
0	5204	0.004125773441046476
0	5248	0.00827026180922985
0	5230	-0.003391107777133584
0	5266	0.006798438727855682
0	5278	0.0022712931968271732
0	5268	-0.0018971491372212768
0	5292	0.00456539960578084
0	5306	0.002670498564839363
0	5332	0.004973981995135546
0	5306	-0.004988615866750479
0	5312	0.0011547640897333622
0	5326	0.0027020766865462065
0	5364	0.0073533207178115845
0	5382	0.003488372080028057
0	5398	0.0031014163978397846
0	5538	0.0271079670637846
0	5500	-0.0073334532789886
0	5440	-0.011535799130797386
0	5430	-0.0019152684835717082
0	5336	-0.017935965210199356
0	5290	-0.008752236142754555
0	5270	-0.003796651493757963
0	5262	-0.001515725627541542
0	5288	0.004918157123029232
0	5292	0.0007554772309958935
0	5524	0.04376532882452011
0	6498	0.1833101212978363
0	6442	-0.01045309193432331
1	5024	-0.26261529326438904
1	3528	-0.27733150124549866
0	5182	0.3097881078720093
0	5470	0.05394874885678291
0	5500	0.005611882545053959
0	5516	0.0029879736248403788
0	5530	0.0026104142889380455
0	5568	0.007074330467730761
0	5576	0.0014865652192384005
0	5578	0.0003709886805154383
0	5586	0.0014814630849286914
0	5598	0.0022187160793691874
0	5572	-0.0047985827550292015
0	5586	0.0025797258131206036
0	5618	0.005887114442884922
0	5608	-0.0018368620658293366
0	5606	-0.0003668647550512105
0	5620	0.002564791589975357
0	5708	0.01611347869038582
0	5740	0.00585201708599925
0	5736	-0.0007301667938008904
0	5794	0.010567743331193924
0	5792	-0.00036339412326924503
0	5760	-0.005796681623905897
0	5720	-0.007224476430565119
0	5532	-0.0338616706430912
0	5324	-0.03740917518734932
0	5140	-0.0330863818526268
0	4990	-0.0270348209887743
0	4846	-0.026190707460045815
0	4792	-0.009917477145791054
0	4846	0.009931582026183605
0	4854	0.0014595522079616785
0	4902	0.008774816058576107
0	4966	0.01174039114266634
0	5024	0.010674584656953812
0	5048	0.004430441651493311
0	5054	0.0011109054321423173
0	5128	0.013744768686592579
0	5138	0.0018625673837959766
0	5204	0.0123266177251935
0	5222	0.0033698189072310925
0	5226	0.0007506098481826484
0	5228	0.00037611895822919905
0	5214	-0.002638754667714238
0	5250	0.0068026352673769
0	5270	0.003787783207371831
0	5270	0.0
0	5282	0.0022825549822300673
0	5306	0.004577473737299442
0	5306	0.0
0	5316	0.001917815301567316
0	5346	0.005771080497652292
0	5348	0.00038584216963499784
0	5374	0.0050292727537453175
0	5370	-0.0007754642865620553
0	5466	0.018630648031830788
0	5520	0.01047012209892273
0	5408	-0.021662604063749313
0	5420	0.0023147552274167538
0	5402	-0.003459365339949727
0	5294	-0.02067539654672146
0	5242	-0.009926442988216877
0	5248	0.0011425379198044538
0	5264	0.003040091134607792
0	5254	-0.001896477653644979
0	5274	0.0037874483969062567
0	5774	0.09455132484436035
0	6848	0.20217865705490112
0	6436	-0.0767301544547081
1	4656	-0.32885417342185974
0	3938	-0.13309934735298157
0	5030	0.20404858887195587
0	5444	0.07745363563299179
0	5486	0.007847044616937637
0	5510	0.004476442933082581
0	5548	0.007076262030750513
0	5562	0.0026025529950857162
0	5526	-0.006680191494524479
0	5550	0.004446750041097403
0	5570	0.003700049128383398
0	5560	-0.0018470176728442311
0	5562	0.00036884943256154656
0	5572	0.0018418014515191317
0	5572	0.0
0	5602	0.005511126480996609
0	5576	-0.00476953387260437
0	5662	0.015765545889735222
0	5674	0.002197936410084367
0	5714	0.007314575836062431
0	5734	0.0036507451441138983
0	5752	0.003279046854004264
0	5786	0.006176577415317297
0	5728	-0.010501919314265251
0	5680	-0.008666137233376503
0	5594	-0.015488054603338242
0	5410	-0.033069733530282974
0	5156	-0.045613449066877365
0	4986	-0.030642041936516762
0	4884	-0.018593233078718185
0	4856	-0.0051526157185435295
0	4834	-0.004043523222208023
0	4858	0.004387034103274345
0	4906	0.00878327339887619
0	4954	0.008812190033495426
0	5016	0.011419590562582016
0	5052	0.006650901865214109
0	5092	0.007412532344460487
0	5130	0.007062409073114395
0	5182	0.009688117541372776
0	5182	0.0
0	5242	0.011231327429413795
0	5232	-0.00187560950871557
0	5248	0.003007179591804743
0	5268	0.003766620298847556
0	5250	-0.003396440064534545
0	5264	0.0026475372724235058
0	5260	-0.0007579298689961433
0	5284	0.004559155087918043
0	5306	0.0041895718313753605
0	5310	0.0007637183298356831
0	5326	0.0030631390400230885
0	5342	0.0030714888125658035
0	5482	0.026952102780342102
0	5510	0.005398943088948727
0	5392	-0.022777577862143517
0	5434	0.008117824792861938
0	5416	-0.003478529630228877
0	5360	-0.01080399751663208
0	5262	-0.01886162906885147
0	5252	-0.0019199999514967203
0	5268	0.0030642340425401926
0	5264	-0.0007639419636689126
0	5268	0.0007619725074619055
0	5676	0.07754295319318771
0	6654	0.18502870202064514
0	6622	-0.005992210004478693
1	5110	-0.28038421273231506
1	3512	-0.2962990403175354
0	4994	0.27756622433662415
0	5448	0.08513031899929047
0	5498	0.009360023774206638
0	5538	0.0074760764837265015
0	5554	0.002984740538522601
0	5550	-0.000744768010918051
0	5526	-0.004460800439119339
0	5558	0.005937581416219473
0	5556	-0.00037042523035779595
0	5544	-0.0022184972185641527
0	5580	0.006644845474511385
0	5586	0.001105610397644341
0	5606	0.00367913069203496
0	5590	-0.002938259858638048
0	5614	0.004400709178298712
0	5646	0.005862881429493427
0	5684	0.006956394296139479
0	5754	0.012791617773473263
0	5762	0.0014590552309527993
0	5782	0.0036399816162884235
0	5822	0.0072613731026649475
0	5776	-0.008322377689182758
0	5724	-0.009378268383443356
0	5516	-0.03741052374243736
0	5312	-0.036635737866163254
0	5046	-0.047757551074028015
0	4910	-0.02450980432331562
0	4812	-0.01784847117960453
0	4792	-0.0036830150056630373
0	4808	0.002952174749225378
0	4890	0.01501025166362524
0	4902	0.0021980167366564274
0	4958	0.010291721671819687
0	5042	0.015488820150494576
0	5068	0.004808818455785513
0	5160	0.0170669574290514
0	5144	-0.0029753418639302254
0	5214	0.013048017397522926
0	5218	0.0007471980061382055
0	5222	0.0007487738621421158
0	5230	0.0015005626482889056
0	5208	-0.004135597497224808
0	5246	0.007160264067351818
0	5248	0.0003777100646402687
0	5254	0.0011355751194059849
0	5260	0.0011381600052118301
0	5262	0.00038031491567380726
0	5304	0.008008033037185669
0	5308	0.0007648573373444378
0	5350	0.008054308593273163
0	5348	-0.00038460057112388313
0	5374	0.005015045404434204
0	5420	0.00889576505869627
0	5472	0.0100758271291852
0	5474	0.0003876419796142727
0	5462	-0.002323420252650976
0	5442	-0.003861997975036502
0	5352	-0.017319682985544205
0	5288	-0.012273703701794147
0	5292	0.0007646818994544446
0	5274	-0.0034304880537092686
0	5306	0.006083804182708263
0	5294	-0.002275600330904126
0	5564	0.05109249800443649
0	6498	0.17616216838359833
0	6664	0.031030356884002686
1	5424	-0.22964096069335938
0	3676	-0.3231610953807831
0	4986	0.24450334906578064
0	5448	0.08635406196117401
0	5528	0.0149320587515831
0	5532	0.0007452212739735842
0	5580	0.008924697525799274
0	5566	-0.002597659593448043
0	5574	0.0014814630849286914
0	5578	0.0007392713450826705
0	5566	-0.002213477622717619
0	5574	0.0014728986425325274
0	5572	-0.0003676155174616724
0	5586	0.0025691529735922813
0	5610	0.004397913347929716
0	5618	0.001463628839701414
0	5640	0.004018998704850674
0	5636	-0.0007297494448721409
0	5710	0.013486914336681366
0	5734	0.004367872141301632
0	5816	0.014898977242410183
0	5818	0.00036256841849535704
0	5842	0.004338603932410479
0	5828	-0.0025224315468221903
0	5754	-0.013290069997310638
0	5608	-0.02614581771194935
0	5362	-0.04397464171051979
0	5142	-0.039310988038778305
0	4966	-0.031528033316135406
0	4842	-0.022418010979890823
0	4790	-0.009505472145974636
0	4778	-0.002202077303081751
0	4854	0.013853108510375023
0	4888	0.006202417425811291
0	4940	0.009518463164567947
0	4976	0.006613432429730892
0	5028	0.009585371240973473
0	5062	0.006288687698543072
0	5086	0.004452910274267197
0	5138	0.009677179157733917
0	5182	0.008210794068872929
0	5170	-0.0022446690127253532
0	5182	0.0022503375075757504
0	5226	0.008271402679383755
0	5242	0.0030145831406116486
0	5254	0.0022661748807877302
0	5244	-0.0018928161589428782
0	5274	0.005692671984434128
0	5272	-0.00038038240745663643
0	5294	0.004195857793092728
0	5276	-0.0034426040947437286
0	5294	0.003454496618360281
0	5310	0.0030809915624558926
0	5324	0.0027051048818975687
0	5312	-0.002326212590560317
0	5372	0.011664376594126225
0	5430	0.011292834766209126
0	5408	-0.004281599540263414
0	5438	0.00582848722115159
0	5490	0.010071923956274986
0	5444	-0.008872658014297485
0	5340	-0.019975926727056503
0	5324	-0.003062200965359807
0	5290	-0.006487724371254444
0	5280	-0.0019032874843105674
0	5320	0.0075967637822031975
0	5340	0.003790128044784069
0	6016	0.1278543472290039
0	6872	0.16093048453330994
1	6036	-0.15543077886104584
0	3460	-0.4762844145298004
0	4204	0.13903596997261047
0	5272	0.20079214870929718
0	5478	0.03870774060487747
0	5542	0.012006753124296665
0	5552	0.001872542197816074
0	5564	0.0022428787779062986
0	5548	-0.002984554972499609
0	5580	0.005958957597613335
0	5594	0.0026020691730082035
0	5566	-0.005194483790546656
0	5568	0.000370370369637385
0	5596	0.005176430102437735
0	5592	-0.0007381889736279845
0	5608	0.0029478957876563072
0	5602	-0.0011034549679607153
0	5620	0.0033057041000574827
0	5672	0.009538717567920685
0	5712	0.007325649727135897
0	5722	0.0018283542012795806
0	5774	0.00949401780962944
0	5838	0.011661523953080177
0	5830	-0.001453294767998159
0	5822	-0.0014488553861156106
0	5728	-0.016969550400972366
0	5546	-0.03276760131120682
0	5332	-0.03847675397992134
0	5124	-0.03739975765347481
0	4910	-0.03868541866540909
0	4824	-0.015732474625110626
0	4776	-0.00884629599750042
0	4796	0.0036563961766660213
0	4826	0.005464878864586353
0	4888	0.011324752122163773
0	4964	0.013932001776993275
0	4980	0.0029434491880238056
0	5026	0.008492203429341316
0	5078	0.00963177066296339
0	5102	0.00445837015286088
0	5152	0.00931584369391203
0	5166	0.002615616424009204
0	5210	0.008241037838160992
0	5226	0.0030034538358449936
0	5228	0.0003763029526453465
0	5246	0.0033944756723940372
0	5242	-0.0007560484227724373
0	5274	0.006062136963009834
0	5254	-0.003797131823375821
0	5278	0.004568643867969513
0	5304	0.004963031504303217
0	5314	0.0019139489158988
0	5312	-0.00038391645648516715
0	5322	0.0019260648405179381
0	5320	-0.0003864734317176044
0	5348	0.00542818009853363
0	5364	0.0031094527803361416
0	5388	0.0046696849167346954
0	5418	0.005834986921399832
0	5466	0.00931821670383215
0	5502	0.0069636087864637375
0	5446	-0.010785131715238094
0	5486	0.007670672610402107
0	5414	-0.013746580109000206
0	5378	-0.006847664713859558
0	5314	-0.012135921977460384
0	5280	-0.006432977505028248
0	5310	0.005665437318384647
0	5278	-0.006032348610460758
0	5314	0.006777874194085598
0	5952	0.11995938420295715
0	6934	0.1837185174226761
0	6286	-0.11990969628095627
1	4566	-0.31618034839630127
0	4020	-0.10077644139528275
0	5158	0.21161594986915588
0	5450	0.054328277707099915
0	5510	0.011148963123559952
0	5524	0.0025976274628192186
0	5558	0.0062980069778859615
0	5546	-0.0022189896553754807
0	5578	0.005908492486923933
0	5594	0.0029494536574929953
0	5576	-0.003312395652756095
0	5578	0.00036747142439708114
0	5602	0.00440270034596324
0	5588	-0.0025642591062933207
0	5590	0.00036582243046723306
0	5622	0.005845958832651377
0	5628	0.0010947573464363813
0	5668	0.007291197776794434
0	5712	0.008012237027287483
0	5754	0.007635715417563915
0	5788	0.006171271204948425
0	5830	0.007606123574078083
0	5814	-0.0028896862640976906
0	5782	-0.00576202804222703
0	5684	-0.017593201249837875
0	5512	-0.030808914452791214
0	5292	-0.03935176879167557
0	5096	-0.035063449293375015
0	4894	-0.036322224885225296
0	4834	-0.010922329500317574
0	4770	-0.011754047125577927
0	4794	0.00440226960927248
0	4822	0.005111790262162685
0	4884	0.011342154815793037
0	4922	0.00697571923956275
0	4958	0.0066324397921562195
0	5032	0.013680902309715748
0	5056	0.004451478831470013
0	5106	0.009302094578742981
0	5130	0.004478113260120153
0	5156	0.0048653301782906055
0	5182	0.004878109786659479
0	5226	0.008275758475065231
0	5232	0.0011311790440231562
0	5220	-0.002267430769279599
0	5256	0.006818181835114956
0	5260	0.0007593302871100605
0	5258	-0.00038055129698477685
0	5232	-0.004960065241903067
0	5266	0.006506097968667746
0	5270	0.0007678132387809455
0	5284	0.0026962829288095236
0	5300	0.0030923052690923214
0	5294	-0.001163467182777822
0	5346	0.010115288197994232
0	5362	0.0031192325986921787
0	5358	-0.0007805690402165055
0	5376	0.0035110535100102425
0	5400	0.004672897048294544
0	5414	0.002716934308409691
0	5550	0.026294419541954994
0	5504	-0.008849216625094414
0	5446	-0.01110713928937912
0	5452	0.0011444557458162308
0	5454	0.0003801124985329807
0	5352	-0.019320620223879814
0	5286	-0.012470555491745472
0	5248	-0.007168549112975597
0	5266	0.003391533624380827
0	5294	0.005270422901958227
0	5286	-0.0015042872400954366
0	5514	0.04283728078007698
0	6482	0.18149319291114807
0	6670	0.03497414290904999
1	5530	-0.21020282804965973
1	3352	-0.400834321975708
0	4880	0.28453314304351807
0	5410	0.0989261269569397
0	5492	0.015291090123355389
0	5538	0.008564088493585587
0	5572	0.006319310981780291
0	5532	-0.007420599926263094
0	5544	0.002222771057859063
0	5570	0.004808759316802025
0	5558	-0.0022156573832035065
0	5566	0.0014751800335943699
0	5564	-0.00036833315971307456
0	5612	0.008828830905258656
0	5604	-0.0014693457633256912
0	5634	0.00550317345187068
0	5658	0.004396624397486448
0	5658	0.0
0	5700	0.0076818023808300495
0	5728	0.005113283637911081
0	5770	0.007657060865312815
0	5824	0.00982592348009348
0	5818	-0.0010886526433750987
0	5802	-0.0028937626630067825
0	5750	-0.009373422712087631
0	5624	-0.022646663710474968
0	5440	-0.03300606086850166
0	5204	-0.04229491576552391
0	4996	-0.03734603896737099
0	4852	-0.0260869562625885
0	4816	-0.006594131235033274
0	4806	-0.001839723321609199
0	4814	0.0014587714103981853
0	4874	0.01094517670571804
0	4934	0.010980966500937939
0	4982	0.008814780041575432
0	5014	0.005896588321775198
0	5056	0.0077658891677856445
0	5114	0.010755878873169422
0	5162	0.008925139904022217
0	5168	0.0011184709146618843
0	5204	0.0067271278239786625
0	5182	-0.004120313096791506
0	5230	0.009011263959109783
0	5220	-0.0018818452954292297
0	5260	0.007545556407421827
0	5244	-0.003025337355211377
0	5272	0.005308190826326609
0	5274	0.0003800836275331676
0	5286	0.002286672592163086
0	5280	-0.0011465551797300577
0	5304	0.00460058031603694
0	5306	0.0003846597683150321
0	5342	0.006946677807718515
0	5328	-0.002709502587094903
0	5338	0.001940642367117107
0	5350	0.002333087148144841
0	5382	0.006225196644663811
0	5380	-0.0003886261838488281
0	5436	0.010854536667466164
0	5576	0.0270343329757452
0	5516	-0.011529740877449512
0	5446	-0.013390465639531612
0	5420	-0.00495363911613822
0	5358	-0.011771705001592636
0	5302	-0.010604051873087883
0	5256	-0.008692913688719273
0	5274	0.0033963972236961126
0	5260	-0.0026380252093076706
0	5280	0.003765154629945755
0	5324	0.008277211338281631
0	6038	0.1341852992773056
0	6926	0.166018545627594
0	6130	-0.14721839129924774
1	3922	-0.40611129999160767
0	4238	0.05858723446726799
0	5210	0.18135681748390198
0	5484	0.051134031265974045
0	5522	0.0070822411216795444
0	5538	0.0029774089343845844
0	5554	0.002972761867567897
0	5550	-0.0007419314933940768
0	5576	0.004815231077373028
0	5550	-0.0048072184436023235
0	5570	0.0036931256763637066
0	5578	0.0014750531408935785
0	5562	-0.0029457611963152885
0	5582	0.0036774168256670237
0	5608	0.004774789325892925
0	5610	0.0003667795390356332
0	5644	0.006228627637028694
0	5668	0.004394853487610817
0	5708	0.007317965384572744
0	5762	0.009863493964076042
0	5776	0.0025518883485347033
0	5826	0.009090798906981945
0	5814	-0.0021748850122094154
0	5822	0.001445051864720881
0	5724	-0.017643669620156288
0	5594	-0.023339876905083656
0	5390	-0.03655695542693138
0	5152	-0.042632974684238434
0	4992	-0.028813254088163376
0	4860	-0.024050140753388405
0	4798	-0.011384083889424801
0	4798	0.0
0	4824	0.004732377827167511
0	4908	0.015325110405683517
0	4964	0.010252654552459717
0	4988	0.004409009125083685
0	5010	0.0040552495047450066
0	5068	0.010726968757808208
0	5110	0.007790955249220133
0	5164	0.010045887902379036
0	5182	0.0033566642086952925
0	5178	-0.0007477288017980754
0	5206	0.005247179418802261
0	5182	-0.004507606383413076
0	5182	0.0
0	5242	0.011327594518661499
0	5250	0.0015138518065214157
0	5292	0.00796752329915762
0	5288	-0.0007606201688759029
0	5270	-0.003431927179917693
0	5304	0.006502862554043531
0	5306	0.00038367585511878133
0	5326	0.0038495592307299376
0	5320	-0.0011584949679672718
0	5326	0.0011622501770034432
0	5384	0.011264031752943993
0	5410	0.005056267138570547
0	5538	0.02488916553556919
0	5470	-0.013189371675252914
0	5450	-0.003867275081574917
0	5454	0.0007705248426645994
0	5368	-0.016496796160936356
0	5326	-0.008027318865060806
0	5282	-0.008382761850953102
0	5294	0.0022807905916124582
0	5306	0.0022760319989174604
0	5284	-0.0041643534786999226
0	5520	0.04459505155682564
0	6402	0.16619141399860382
0	6870	0.08747336268424988
1	5542	-0.2456045001745224
1	3388	-0.3974854052066803
0	4998	0.3004067540168762
0	5440	0.08257874846458435
0	5474	0.006342021282762289
0	5494	0.0037238402292132378
0	5526	0.005948839709162712
0	5516	-0.001855838461779058
0	5582	0.012231584638357162
0	5558	-0.004439785610884428
0	5566	0.001477304962463677
0	5562	-0.0007374631240963936
0	5560	-0.00036815236671827734
0	5588	0.005146743264049292
0	5554	-0.006239371839910746
0	5580	0.004764638841152191
0	5618	0.006955375894904137
0	5642	0.004387300927191973
0	5700	0.010595929808914661
0	5724	0.004378390032798052
0	5806	0.014934615232050419
0	5814	0.0014539286494255066
0	5806	-0.001450010808184743
0	5814	0.0014458178775385022
0	5702	-0.020176788792014122
0	5602	-0.017970958724617958
0	5430	-0.030855339020490646
0	5214	-0.03871476650238037
0	4992	-0.03986304998397827
0	4824	-0.030423391610383987
0	4790	-0.0062341089360415936
0	4798	0.0014736221637576818
0	4856	0.010592060163617134
0	4906	0.00913898553699255
0	4962	0.010269074700772762
0	4996	0.006254368461668491
0	5034	0.007011587265878916
0	5066	0.005922416225075722
0	5152	0.015960803255438805
0	5116	-0.006699087098240852
0	5182	0.012315424159169197
0	5222	0.007481763139367104
0	5182	-0.007497657090425491
0	5248	0.012400421313941479
0	5242	-0.0011297165183350444
0	5258	0.003018488408997655
0	5264	0.0011342298239469528
0	5272	0.001515687326900661
0	5290	0.003418284235522151
0	5298	0.0015231906436383724
0	5326	0.005345620214939117
0	5318	-0.0015319996746256948
0	5368	0.0096054095774889
0	5380	0.002311782445758581
0	5440	0.011591215617954731
0	5466	0.005031349137425423
0	5448	-0.0034862998872995377
0	5420	-0.005422503687441349
0	5352	-0.013151448220014572
0	5306	-0.008875967934727669
0	5288	-0.0034624706022441387
0	5280	-0.0015339775709435344
0	5308	0.005352432373911142
0	5294	-0.0026685302145779133
0	5608	0.059704143553972244
0	6654	0.1980760544538498
0	6804	0.02811059169471264
1	5322	-0.27469539642333984
1	3528	-0.33200088143348694
0	4912	0.2587173879146576
0	5378	0.08722236007452011
0	5460	0.015329394489526749
0	5474	0.002613337943330407
0	5488	0.002608598442748189
0	5510	0.004093124996870756
0	5540	0.005572272464632988
0	5536	-0.0007416746811941266
0	5518	-0.0033319348003715277
0	5538	0.0036965387407690287
0	5534	-0.000738179893232882
0	5588	0.00995098240673542
0	5560	-0.005151477642357349
0	5584	0.004409009125083685
0	5630	0.008439437486231327
0	5666	0.006594695150852203
0	5704	0.006951473653316498
0	5720	0.0029226946644484997
0	5778	0.010577250272035599
0	5820	0.007642755750566721
0	5808	-0.0021774631459265947
0	5788	-0.003618119517341256
0	5750	-0.006853762548416853
0	5598	-0.027337800711393356
0	5406	-0.0344720259308815
0	5206	-0.0358843095600605
0	4982	-0.040287286043167114
0	4856	-0.022891053929924965
0	4818	-0.006986064836382866
0	4814	-0.0007376535213552415
0	4850	0.006586811505258083
0	4892	0.0076875207014381886
0	4948	0.010280510410666466
0	4994	0.008471246808767319
0	5060	0.012190316803753376
0	5098	0.0070372107438743114
0	5114	0.002970591187477112
0	5160	0.00856302585452795
0	5202	0.007836698554456234
0	5228	0.004860842600464821
0	5240	0.002247808501124382
0	5248	0.001501294900663197
0	5244	-0.0007522473460994661
0	5244	0.0
0	5262	0.003399091074243188
0	5268	0.0011356610339134932
0	5274	0.001138519961386919
0	5318	0.008371916599571705
0	5332	0.0026706005446612835
0	5316	-0.003060795133933425
0	5344	0.005373661406338215
0	5396	0.01000936795026064
0	5446	0.009648659266531467
0	5478	0.0061872415244579315
0	5412	-0.0127710634842515
0	5374	-0.007352751679718494
0	5296	-0.01507615391165018
0	5276	-0.00385787570849061
0	5288	0.0023084913846105337
0	5262	-0.004986701998859644
0	5344	0.01568237505853176
0	5892	0.10447514802217484
0	6868	0.1848975121974945
0	6280	-0.11005876958370209
1	4474	-0.3353469669818878
0	3772	-0.13082534074783325
0	4982	0.2273695319890976
0	5444	0.08688565343618393
0	5508	0.012014718726277351
0	5502	-0.001124227070249617
0	5542	0.0074820430018007755
0	5580	0.007094581611454487
0	5524	-0.010433616116642952
0	5568	0.008183610625565052
0	5562	-0.0011137097608298063
0	5562	0.0
0	5582	0.003698771819472313
0	5602	0.003691762452945113
0	5606	0.0007370645762421191
0	5634	0.005150782875716686
0	5668	0.006242350209504366
0	5676	0.0014658815925940871
0	5700	0.004390136804431677
0	5784	0.015341718681156635
0	5824	0.007291995454579592
0	5850	0.0047279600985348225
0	5838	-0.0021758575458079576
0	5790	-0.008675012737512589
0	5732	-0.010449948720633984
0	5522	-0.03773539513349533
0	5306	-0.0387532003223896
0	5100	-0.03696747124195099
0	4952	-0.026685578748583794
0	4822	-0.02371310628950596
0	4792	-0.005521201528608799
0	4794	0.0003673634200822562
0	4818	0.004380947910249233
0	4890	0.01315597165375948
0	4942	0.00953370425850153
0	4988	0.008462934754788876
0	5040	0.009597047232091427
0	5094	0.009997038170695305
0	5132	0.007056114729493856
0	5172	0.007445554248988628
0	5224	0.009703061543405056
0	5242	0.003365828189998865
0	5248	0.0011241849279031157
0	5250	0.00037551161949522793
0	5256	0.0011290221009403467
0	5280	0.004526024684309959
0	5266	-0.002646069275215268
0	5280	0.002652787836268544
0	5288	0.0015196799067780375
0	5288	0.0
0	5322	0.006495987996459007
0	5314	-0.0015333699993789196
0	5366	0.010001154616475105
0	5390	0.004629927687346935
0	5462	0.013925600796937943
0	5486	0.0046499609015882015
0	5478	-0.0015503475442528725
0	5420	-0.011227544397115707
0	5350	-0.013522563502192497
0	5270	-0.015414852648973465
0	5288	0.0034583904780447483
0	5290	0.000383048813091591
0	5284	-0.0011455191997811198
0	5320	0.006852791644632816
0	5926	0.11504144966602325
0	6862	0.17658822238445282
1	5898	-0.179752379655838
0	3382	-0.4666576087474823
0	4740	0.2545709013938904
0	5408	0.1255308836698532
0	5478	0.013135015964508057
0	5544	0.012364799156785011
0	5524	-0.003739855717867613
0	5532	0.0014933731872588396
0	5546	0.002608825219795108
0	5550	0.0007440383778885007
0	5566	0.0029711793176829815
0	5584	0.0033363811671733856
0	5574	-0.0018500701989978552
0	5576	0.0003693625913001597
0	5596	0.003687088843435049
0	5628	0.005889425985515118
0	5626	-0.0003673814353533089
0	5660	0.006235557142645121
0	5680	0.003661930561065674
0	5734	0.009874074719846249
0	5790	0.010224326513707638
0	5834	0.008018175140023232
0	5864	0.005453223362565041
0	5846	-0.00326177547685802
0	5796	-0.009029073640704155
0	5656	-0.025204334408044815
0	5456	-0.03592728450894356
0	5248	-0.03732593357563019
0	5006	-0.043445996940135956
0	4858	-0.026717372238636017
0	4794	-0.01169448159635067
0	4768	-0.004783045966178179
0	4788	0.0036482589785009623
0	4880	0.016777096316218376
0	4914	0.006220194511115551
0	4980	0.01211616862565279
0	5038	0.010684416629374027
0	5054	0.002956247655674815
0	5116	0.011489282362163067
0	5156	0.007432181388139725
0	5182	0.004842735361307859
0	5214	0.005974533502012491
0	5232	0.003368431469425559
0	5246	0.0026254921685904264
0	5264	0.0033826108556240797
0	5266	0.00037662891554646194
0	5260	-0.0011324600782245398
0	5280	0.0037835792172700167
0	5284	0.000758533482439816
0	5328	0.00836480688303709
0	5332	0.0007623984711244702
0	5334	0.0003823117003776133
0	5350	0.003068268997594714
0	5378	0.005387171171605587
0	5342	-0.006947214249521494
0	5392	0.009677169844508171
0	5452	0.01163241546601057
0	5478	0.00504084350541234
0	5432	-0.008905179798603058
0	5388	-0.008494645357131958
0	5316	-0.013853080570697784
0	5266	-0.009588095359504223
0	5264	-0.00038230684003792703
0	5250	-0.0026680557057261467
0	5276	0.0049433414824306965
0	5430	0.029212772846221924
0	6290	0.16267339885234833
0	6848	0.10472186654806137
1	5734	-0.20674806833267212
0	3322	-0.44593995809555054
0	4904	0.2958299517631531
0	5428	0.09815675020217896
0	5490	0.011598468758165836
0	5514	0.004482518415898085
0	5520	0.0011187628842890263
0	5534	0.0026062997058033943
0	5556	0.004088813904672861
0	5576	0.003710299963131547
0	5564	-0.00222211261279881
0	5590	0.004806270357221365
0	5594	0.000738234375603497
0	5574	-0.003685231786221266
0	5582	0.001471922965720296
0	5588	0.0011023738188669086
0	5624	0.006605747155845165
0	5666	0.007693434599786997
0	5714	0.00877781119197607
0	5764	0.009128973819315434
0	5800	0.0065614404156804085
0	5828	0.005091958213597536
0	5884	0.010156826116144657
0	5864	-0.003615024033933878
0	5790	-0.013327570632100105
0	5626	-0.029443800449371338
0	5434	-0.034393396228551865
0	5180	-0.04545671492815018
0	4960	-0.03943076357245445
0	4828	-0.023847950622439384
0	4744	-0.015362855978310108
0	4782	0.006992063485085964
0	4822	0.007294744253158569
0	4836	0.002554433885961771
0	4922	0.015748225152492523
0	4950	0.005145167000591755
0	4988	0.007006932981312275
0	5050	0.011469869874417782
0	5112	0.011504205875098705
0	5132	0.0037212534807622433
0	5158	0.00485098734498024
0	5182	0.004489169921725988
0	5212	0.005625773221254349
0	5214	0.0003759492828976363
0	5230	0.0030143936164677143
0	5258	0.0052868761122226715
0	5248	-0.0018920998554676771
0	5254	0.0011379584902897477
0	5264	0.0019015503348782659
0	5258	-0.0011441938113421202
0	5280	0.004208915401250124
0	5280	0.0
0	5296	0.0030820202082395554
0	5346	0.009667814709246159
0	5346	0.0
0	5344	-0.0003891252272296697
0	5416	0.01403417531400919
0	5378	-0.007407792378216982
0	5462	0.01635407842695713
0	5506	0.008538604713976383
0	5478	-0.005409931298345327
0	5478	0.0
0	5412	-0.0126356091350317
0	5334	-0.01487697847187519
0	5286	-0.009126168675720692
0	5248	-0.007208255119621754
0	5294	0.008709372021257877
0	5274	-0.003779384773224592
0	5436	0.030569881200790405
0	6236	0.1506553590297699
0	6832	0.11146576702594757
1	5754	-0.19952863454818726
0	3500	-0.4157291054725647
0	4796	0.24157771468162537
0	5414	0.11549675464630127
0	5480	0.012320482172071934
0	5512	0.005965326447039843
0	5530	0.0033500005956739187
0	5524	-0.0011147580808028579
0	5554	0.005564830265939236
0	5532	-0.004073420073837042
0	5558	0.004806566517800093
0	5578	0.0036910357885062695
0	5590	0.002210786333307624
0	5590	0.0
0	5606	0.0029389073606580496
0	5604	-0.0003667750861495733
0	5620	0.002930832328274846
0	5658	0.006950456649065018
0	5696	0.00694216089323163
0	5708	0.002189727732911706
0	5788	0.014577791094779968
0	5822	0.006183917168527842
0	5860	0.006894299760460854
0	5842	-0.0032553651835769415
0	5822	-0.00360498926602304
0	5726	-0.017244476824998856
0	5526	-0.03583330288529396
0	5292	-0.04186196252703667
0	5054	-0.04261414334177971
0	4856	-0.035703979432582855
0	4784	-0.013139325194060802
0	4784	0.0
0	4810	0.0047357105650007725
0	4876	0.012020398862659931
0	4894	0.0032890329603105783
0	4960	0.012102984823286533
0	5002	0.007727975491434336
0	5056	0.009968249127268791
0	5062	0.001110781915485859
0	5156	0.017455246299505234
0	5118	-0.007072838023304939
0	5164	0.008585292845964432
0	5182	0.003368137404322624
0	5182	0.0
0	5222	0.007523039355874062
0	5262	0.007541193626821041
0	5240	-0.004156590439379215
0	5276	0.006818009540438652
0	5286	0.0018984698690474033
0	5280	-0.0011420450173318386
0	5246	-0.006489209830760956
0	5302	0.010725093074142933
0	5306	0.0007686296012252569
0	5332	0.005013884510844946
0	5376	0.008512943051755428
0	5372	-0.0007761364104226232
0	5468	0.01867002062499523
0	5486	0.0035019456408917904
0	5474	-0.0023316966835409403
0	5462	-0.002325371140614152
0	5376	-0.01660018041729927
0	5338	-0.007307130377739668
0	5272	-0.012646423652768135
0	5246	-0.004967267159372568
0	5278	0.006099187768995762
0	5278	0.0
0	5268	-0.0018975331913679838
0	5760	0.09320182353258133
0	6790	0.1942541003227234
0	6582	-0.038806453347206116
1	4892	-0.3125308156013489
1	3648	-0.23037321865558624
0	5076	0.26694583892822266
0	5406	0.06172993406653404
0	5470	0.011955168098211288
0	5490	0.003730229800567031
0	5502	0.0022349697537720203
0	5534	0.005950241349637508
0	5528	-0.0011138890404254198
0	5530	0.0003707410942297429
0	5560	0.005552539601922035
0	5564	0.0007389071979559958
0	5574	0.0018442925065755844
0	5568	-0.0011047553271055222
0	5600	0.005883506964892149
0	5582	-0.0033049355261027813
0	5622	0.007334874011576176
0	5690	0.012457558885216713
0	5692	0.0003659428912214935
0	5734	0.0076745967380702496
0	5786	0.009486165829002857
0	5822	0.006551012862473726
0	5830	0.0014515192015096545
0	5810	-0.0036165928468108177
0	5726	-0.015138226561248302
0	5554	-0.030914124101400375
0	5352	-0.03624618798494339
0	5134	-0.03909752890467644
0	4966	-0.030243389308452606
0	4842	-0.022569529712200165
0	4778	-0.01177307404577732
0	4816	0.0069951522164046764
0	4846	0.00548319099470973
0	4904	0.010615711100399494
0	4990	0.015788894146680832
0	5000	0.0018413267098367214
0	5062	0.011450664140284061
0	5090	0.005185313057154417
0	5134	0.008170743472874165
0	5182	0.008935331366956234
0	5176	-0.0011193333193659782
0	5210	0.006358071696013212
0	5214	0.0007496626349166036
0	5238	0.004508114419877529
0	5246	0.0015058162389323115
0	5270	0.004527504555881023
0	5278	0.001512134913355112
0	5256	-0.004167403094470501
0	5284	0.00531854247674346
0	5312	0.005332317668944597
0	5336	0.004582834895700216
0	5338	0.0003829999186564237
0	5364	0.004994429647922516
0	5484	0.023120200261473656
0	5450	-0.006564467214047909
0	5420	-0.005802483297884464
0	5412	-0.001548666856251657
0	5292	-0.023221012204885483
0	5298	0.0011598685523495078
0	5254	-0.00848754495382309
0	5262	0.0015391127672046423
0	5312	0.009589689783751965
0	5328	0.003059000475332141
0	5876	0.10444992780685425
0	6830	0.180718332529068
0	6392	-0.08201837539672852
1	4680	-0.31782180070877075
1	3800	-0.1637534350156784
0	5210	0.26449403166770935
0	5446	0.04424889385700226
0	5474	0.0052412208169698715
0	5482	0.0014947124291211367
0	5550	0.012683570384979248
0	5526	-0.004467221442610025
0	5532	0.0011148133780807257
0	5510	-0.004080421291291714
0	5528	0.0033335802145302296
0	5536	0.0014793082373216748
0	5550	0.0025843291077762842
0	5596	0.008477491326630116
0	5570	-0.004783280659466982
0	5582	0.0022045045625418425
0	5628	0.008437993004918098
0	5662	0.006226725876331329
0	5708	0.008415250107645988
0	5736	0.005114279687404633
0	5796	0.010938126593828201
0	5794	-0.00036375538911670446
0	5830	0.006527731195092201
0	5788	-0.007591276429593563
0	5724	-0.011530561372637749
0	5586	-0.02479398250579834
0	5350	-0.04233183711767197
0	5152	-0.03551102429628372
0	4940	-0.038187187165021896
0	4886	-0.009838574565947056
0	4814	-0.013239188119769096
0	4834	0.003674534149467945
0	4886	0.009493670426309109
0	4920	0.0062196641229093075
0	4960	0.0073407962918281555
0	4998	0.006995753385126591
0	5072	0.01366389263421297
0	5086	0.0025926886592060328
0	5118	0.005942285526543856
0	5166	0.008936328813433647
0	5182	0.00298514892347157
0	5182	0.0
0	5250	0.012742354534566402
0	5238	-0.0022528725676238537
0	5266	0.005268505308777094
0	5258	-0.0015081629389896989
0	5294	0.006800579372793436
0	5278	-0.0030288498383015394
0	5288	0.001897629234008491
0	5330	0.007991272956132889
0	5326	-0.0007630384061485529
0	5384	0.011097222566604614
0	5412	0.005371324717998505
0	5432	0.0038469431456178427
0	5422	-0.0019278718391433358
0	5402	-0.0038632412906736135
0	5338	-0.012377035804092884
0	5264	-0.01431205403059721
0	5260	-0.0007730663637630641
0	5266	0.0011572139337658882
0	5272	0.0011543937725946307
0	5280	0.0015346838627010584
0	5462	0.03481476753950119
0	6360	0.17114976048469543
0	6880	0.09820833057165146
1	5272	-0.30006343126296997
1	3592	-0.3129657208919525
0	5134	0.289922297000885
0	5440	0.05751591548323631
0	5502	0.011630088090896606
0	5518	0.0029950207099318504
0	5550	0.005977509543299675
0	5540	-0.0018637013854458928
0	5548	0.0014882797840982676
0	5580	0.005941697396337986
0	5562	-0.003335721790790558
0	5592	0.005549116060137749
0	5560	-0.005908200982958078
0	5600	0.007372456137090921
0	5604	0.0007358351722359657
0	5590	-0.002571103163063526
0	5640	0.009167695418000221
0	5650	0.0018306747078895569
0	5734	0.015355367213487625
0	5736	0.0003649324062280357
0	5808	0.013112525455653667
0	5862	0.00981021486222744
0	5876	0.0025353441014885902
0	5866	-0.0018042941810563207
0	5790	-0.013662840239703655
0	5620	-0.030465949326753616
0	5396	-0.04006008803844452
0	5180	-0.03860267624258995
0	4954	-0.04045780375599861
0	4830	-0.02238590270280838
0	4774	-0.010236037895083427
0	4772	-0.00036668541724793613
0	4816	0.008009320124983788
0	4898	0.014955316670238972
0	4922	0.004391636699438095
0	4992	0.01285441406071186
0	5024	0.005895284935832024
0	5052	0.0051750908605754375
0	5088	0.0066737523302435875
0	5130	0.0078082396648824215
0	5160	0.005592911038547754
0	5166	0.0011213835095986724
0	5234	0.012742831371724606
0	5222	-0.0022533235605806112
0	5220	-0.00037644460098817945
0	5268	0.009056489914655685
0	5236	-0.006049911491572857
0	5270	0.006444438826292753
0	5288	0.003419972490519285
0	5278	-0.0019053667783737183
0	5316	0.007261516060680151
0	5352	0.006900958716869354
0	5350	-0.0003846400650218129
0	5348	-0.00038594144280068576
0	5468	0.023233899846673012
0	5456	-0.0023282284382730722
0	5440	-0.0031076008453965187
0	5418	-0.004271734040230513
0	5348	-0.013570975512266159
0	5298	-0.009668935090303421
0	5286	-0.002313565229997039
0	5260	-0.00499628484249115
0	5310	0.009578299708664417
0	5340	0.005728907883167267
0	6042	0.1336803287267685
0	6870	0.1565612107515335
1	5954	-0.17117442190647125
1	3324	-0.4886417090892792
0	4934	0.30236634612083435
0	5432	0.09361723810434341
0	5464	0.0060042026452720165
0	5528	0.011985616758465767
0	5516	-0.0022422363981604576
0	5556	0.0074610160663723946
0	5540	-0.00297822174616158
0	5586	0.008545421063899994
0	5578	-0.0014832393499091268
0	5572	-0.0011100833071395755
0	5588	0.002954718889668584
0	5574	-0.002580613363534212
0	5610	0.006623816676437855
0	5594	-0.0029386195819824934
0	5626	0.005868544802069664
0	5674	0.008787989616394043
0	5702	0.005116148851811886
0	5778	0.013866926543414593
0	5812	0.0061914995312690735
0	5860	0.0087212473154068
0	5886	0.0047113969922065735
0	5896	0.0018062060698866844
0	5840	-0.01007846836000681
0	5736	-0.01865515485405922
0	5492	-0.04364364966750145
0	5206	-0.051100630313158035
0	4992	-0.03826667368412018
0	4838	-0.027711132541298866
0	4764	-0.013480034656822681
0	4778	0.0025688388850539923
0	4794	0.002909937407821417
0	4866	0.013105841353535652
0	4910	0.008036725223064423
0	4938	0.0051315887831151485
0	5004	0.012139642611145973
0	5040	0.006642475258558989
0	5104	0.01184643991291523
0	5094	-0.001855999231338501
0	5152	0.010797661729156971
0	5182	0.005599800497293472
0	5182	0.0
0	5266	0.0157574862241745
0	5248	-0.0033831195905804634
0	5248	0.0
0	5250	0.00037757697282359004
0	5266	0.00302777998149395
0	5284	0.00341504137031734
0	5300	0.003043638076633215
0	5296	-0.0007632228662259877
0	5326	0.005743018817156553
0	5322	-0.0007683541043661535
0	5344	0.004241263493895531
0	5350	0.0011608259519562125
0	5398	0.009316046722233295
0	5416	0.003501173574477434
0	5504	0.017125286161899567
0	5530	0.0050499821081757545
0	5432	-0.018968475982546806
0	5460	0.005398874171078205
0	5428	-0.006142663303762674
0	5334	-0.017969338223338127
0	5278	-0.010668427683413029
0	5258	-0.0038002103101462126
0	5282	0.004550222773104906
0	5304	0.0041619897820055485
0	5294	-0.0018882413860410452
0	5492	0.03732750192284584
0	6406	0.17189066112041473
0	6654	0.04625944793224335
1	5490	-0.21511206030845642
0	3598	-0.348987340927124
0	5138	0.286853164434433
0	5448	0.05778909847140312
0	5506	0.010798733681440353
0	5542	0.006691947113722563
0	5544	0.00037110340781509876
0	5560	0.002963731298223138
0	5586	0.004807870369404554
0	5570	-0.002953482558950782
0	5554	-0.0029485116247087717
0	5578	0.004416581708937883
0	5606	0.005144599825143814
0	5600	-0.001100648078136146
0	5626	0.0047621955163776875
0	5602	-0.004389761947095394
0	5622	0.0036539912689477205
0	5676	0.009858692064881325
0	5704	0.005107376724481583
0	5740	0.006555784493684769
0	5806	0.011998546309769154
0	5834	0.005078658927232027
0	5874	0.007233360782265663
0	5854	-0.0036037336103618145
0	5794	-0.010772638022899628
0	5648	-0.02613333985209465
0	5432	-0.03858382999897003
0	5206	-0.040336973965168
0	4942	-0.047199610620737076
0	4832	-0.01983959972858429
0	4758	-0.013494456186890602
0	4768	0.0018317254725843668
0	4806	0.0069111851043999195
0	4856	0.00911200512200594
0	4932	0.013900235295295715
0	4938	0.001101240748539567
0	4996	0.01068481057882309
0	5030	0.006284657865762711
0	5076	0.00853062979876995
0	5130	0.010045887902379036
0	5164	0.006342494860291481
0	5170	0.0011219846783205867
0	5172	0.0003749484312720597
0	5206	0.006391457747668028
0	5222	0.003015188965946436
0	5220	-0.00037785753374919295
0	5274	0.01022675633430481
0	5262	-0.0022776161786168814
0	5274	0.0022835973650217056
0	5280	0.0011449216399341822
0	5278	-0.0003827604523394257
0	5308	0.005760810803622007
0	5322	0.002697460353374481
0	5354	0.006187560502439737
0	5340	-0.0027158099692314863
0	5390	0.009727878496050835
0	5406	0.003118138527497649
0	5522	0.022610323503613472
0	5514	-0.0015561376931145787
0	5436	-0.015116279013454914
0	5422	-0.0027026331517845392
0	5434	0.0023066869471222162
0	5362	-0.013781310990452766
0	5288	-0.014114056713879108
0	5266	-0.004184578079730272
0	5290	0.004555347375571728
0	5302	0.002272612415254116
0	5308	0.001134115387685597
0	5352	0.008302303962409496
0	6296	0.17781350016593933
0	6828	0.09948016703128815
1	5698	-0.20913274586200714
0	3350	-0.4331410825252533
0	4782	0.26715752482414246
0	5440	0.12308267503976822
0	5508	0.012702524662017822
0	5548	0.007458697538822889
0	5532	-0.0029784066136926413
0	5538	0.0011150343343615532
0	5562	0.004452855326235294
0	5560	-0.00037042523035779595
0	5582	0.004067596048116684
0	5572	-0.0018457903061062098
0	5572	0.0
0	5596	0.004417177755385637
0	5594	-0.0003675209591165185
0	5582	-0.0022023736964911222
0	5626	0.008066684938967228
0	5650	0.004397215321660042
0	5684	0.006224218290299177
0	5724	0.007311545312404633
0	5802	0.014231326058506966
0	5798	-0.0007281818543560803
0	5856	0.010530775412917137
0	5868	0.00217131688259542
0	5822	-0.008293269202113152
0	5758	-0.011501689441502094
0	5572	-0.03333572298288345
0	5380	-0.03435688093304634
0	5098	-0.05045324191451073
0	4918	-0.03243593871593475
0	4798	-0.02187492325901985
0	4736	-0.011364191770553589
0	4786	0.009087715297937393
0	4804	0.0032714977860450745
0	4894	0.0164207611232996
0	4942	0.008790564723312855
0	4970	0.005146869458258152
0	5016	0.008484788239002228
0	5034	0.0033308248966932297
0	5078	0.008168620057404041
0	5132	0.010055117309093475
0	5182	0.009336370974779129
0	5176	-0.0011230907402932644
0	5178	0.00037529083783738315
0	5258	0.015050985850393772
0	5238	-0.0037706915754824877
0	5270	0.006046177353709936
0	5260	-0.0018936763517558575
0	5284	0.004556039348244667
0	5312	0.005328867118805647
0	5318	0.0011448925361037254
0	5316	-0.00038280931767076254
0	5340	0.004607881885021925
0	5310	-0.005778936669230461
0	5382	0.013919319957494736
0	5364	-0.0034897245932370424
0	5464	0.019436849281191826
0	5492	0.00544612854719162
0	5450	-0.008163264952600002
0	5424	-0.005041951779276133
0	5418	-0.0011597339762374759
0	5316	-0.019637035205960274
0	5288	-0.005370568949729204
0	5242	-0.008794850669801235
0	5262	0.0038132041227072477
0	5284	0.004184736870229244
0	5294	0.0018980373861268163
0	5318	0.004545971285551786
0	5812	0.09339315444231033
0	6836	0.192647784948349
0	6546	-0.05396352708339691
1	4594	-0.3600723147392273
0	3998	-0.11033904552459717
0	5078	0.20140737295150757
0	5426	0.06493829935789108
0	5512	0.01603121869266033
0	5496	-0.0029774829745292664
0	5522	0.004831635858863592
0	5536	0.002597434911876917
0	5552	0.002963877748697996
0	5540	-0.002219618996605277
0	5554	0.002586015732958913
0	5576	0.004057792946696281
0	5556	-0.003683557966724038
0	5568	0.002206801902502775
0	5556	-0.0022042887285351753
0	5582	0.004770350176841021
0	5580	-0.00036668541724793613
0	5638	0.010628161020576954
0	5664	0.0047588832676410675
0	5694	0.0054829902946949005
0	5752	0.010582654736936092
0	5776	0.004367447923868895
0	5798	0.003991677891463041
0	5834	0.0065099457278847694
0	5770	-0.011533470824360847
0	5626	-0.025874771177768707
0	5426	-0.03586586192250252
0	5230	-0.03512587025761604
0	4994	-0.042441971600055695
0	4870	-0.022549007087945938
0	4836	-0.006246249191462994
0	4774	-0.011373364366590977
0	4780	0.0010954501340165734
0	4868	0.01609579473733902
0	4918	0.009176556952297688
0	4992	0.013630837202072144
0	5014	0.00406499020755291
0	5104	0.016681700944900513
0	5134	0.005575448274612427
0	5176	0.00782589241862297
0	5210	0.006349601782858372
0	5182	-0.0052403053268790245
0	5230	0.009005515836179256
0	5208	-0.0041359602473676205
0	5258	0.009421163238584995
0	5270	0.0022653192281723022
0	5280	0.0018914794782176614
0	5308	0.005306179169565439
0	5288	-0.0037980452179908752
0	5302	0.0026649744249880314
0	5318	0.0030532798264175653
0	5320	0.00038271653465926647
0	5362	0.008060491643846035
0	5390	0.0053886910900473595
0	5470	0.015440239571034908
0	5454	-0.003094019601121545
0	5406	-0.009292361326515675
0	5422	0.0030978533904999495
0	5390	-0.00618803920224309
0	5314	-0.014659173786640167
0	5276	-0.00730872293934226
0	5274	-0.00038358758320100605
0	5292	0.0034412876702845097
0	5290	-0.00038112179026938975
0	5316	0.004941337276250124
0	5614	0.056492891162633896
0	6598	0.18580995500087738
0	6684	0.016079174354672432
1	5344	-0.24809300899505615
1	3484	-0.3439221680164337
0	4858	0.25673606991767883
0	5384	0.09850063920021057
0	5510	0.023565497249364853
0	5500	-0.0018670185236260295
0	5554	0.010063611902296543
0	5570	0.0029763381462544203
0	5582	0.002228108700364828
0	5582	0.0
0	5564	-0.0033302910160273314
0	5562	-0.0003694035403896123
0	5580	0.003319318639114499
0	5568	-0.0022093208972364664
0	5586	0.0033089453354477882
0	5602	0.002937252866104245
0	5644	0.0077002993784844875
0	5652	0.0014651656383648515
0	5690	0.006951134651899338
0	5764	0.013513019308447838
0	5804	0.0072891609743237495
0	5818	0.002544806804507971
0	5820	0.0003624370147008449
0	5820	0.0
0	5744	-0.013682518154382706
0	5538	-0.036986496299505234
0	5296	-0.043385762721300125
0	5112	-0.03299146518111229
0	4914	-0.03560852259397507
0	4820	-0.017077453434467316
0	4782	-0.00698246993124485
0	4806	0.004425213672220707
0	4804	-0.0003657956840470433
0	4868	0.011709315702319145
0	4922	0.00991092436015606
0	4982	0.011051895096898079
0	5024	0.007761010434478521
0	5072	0.008898776024580002
0	5152	0.014877078123390675
0	5158	0.0011187628842890263
0	5182	0.0044868760742247105
0	5224	0.007870769128203392
0	5202	-0.0041315071284770966
0	5232	0.00564723601564765
0	5242	0.0018863891018554568
0	5280	0.007183817680925131
0	5284	0.0007577288779430091
0	5314	0.005695914383977652
0	5278	-0.006849749479442835
0	5274	-0.0007630772888660431
0	5300	0.004975505173206329
0	5316	0.0030717249028384686
0	5312	-0.0007704060990363359
0	5370	0.011207440868020058
0	5396	0.005038629751652479
0	5518	0.023696068674325943
0	5466	-0.01010127179324627
0	5434	-0.006209332495927811
0	5454	0.0038727668579667807
0	5378	-0.014665397815406322
0	5292	-0.01653570495545864
0	5252	-0.007665968034416437
0	5254	0.00038220942951738834
0	5250	-0.000762233859859407
0	5286	0.006843498907983303
0	5304	0.0034138753544539213
0	5964	0.12492112815380096
0	6808	0.15880583226680756
0	6142	-0.1239638701081276
1	4238	-0.3522316813468933
0	3878	-0.06697840243577957
0	5140	0.2367108166217804
0	5454	0.058927297592163086
0	5522	0.012741240672767162
0	5512	-0.0018703242531046271
0	5544	0.005974980071187019
0	5572	0.005219530779868364
0	5566	-0.0011164728784933686
0	5592	0.004830498713999987
0	5576	-0.002966845640912652
0	5576	0.0
0	5566	-0.0018476773984730244
0	5600	0.006272445898503065
0	5574	-0.004788096062839031
0	5616	0.007724943105131388
0	5650	0.006245101802051067
0	5660	0.0018353114137426019
0	5710	0.009165679104626179
0	5804	0.01720246486365795
0	5826	0.00401753094047308
0	5870	0.008013210259377956
0	5902	0.005807411391288042
0	5874	-0.005061582662165165
0	5810	-0.011526270769536495
0	5640	-0.030514070764183998
0	5426	-0.038330648094415665
0	5182	-0.043672289699316025
0	4964	-0.039201583713293076
0	4818	-0.026547707617282867
0	4760	-0.010631667450070381
0	4770	0.0018272183369845152
0	4762	-0.0014538757968693972
0	4858	0.01748655177652836
0	4906	0.008775030262768269
0	4984	0.014313152991235256
0	5032	0.008836633525788784
0	5058	0.004801595583558083
0	5090	0.005928414408117533
0	5152	0.01152016595005989
0	5176	0.0044716051779687405
0	5178	0.0003735617792699486
0	5224	0.008613264188170433
0	5244	0.0037529084365814924
0	5236	-0.0015045135514810681
0	5226	-0.0018846350722014904
0	5274	0.00906846672296524
0	5270	-0.0007574992487207055
0	5306	0.006834318395704031
0	5280	-0.004948547575622797
0	5326	0.008784325793385506
0	5304	-0.0042146132327616215
0	5330	0.004998974502086639
0	5342	0.002315708203241229
0	5324	-0.0034854901023209095
0	5372	0.009323888458311558
0	5408	0.007005072198808193
0	5530	0.023742184042930603
0	5478	-0.010096825659275055
0	5424	-0.010450399480760098
0	5436	0.002313267905265093
0	5370	-0.012667946517467499
0	5318	-0.00994263868778944
0	5260	-0.01105070672929287
0	5272	0.0022805307526141405
0	5258	-0.0026544646825641394
0	5260	0.00037855366826988757
0	5286	0.004914128687232733
0	5514	0.04303131625056267
0	6608	0.20592553913593292
0	6358	-0.04663193225860596
1	4486	-0.3466324508190155
0	3856	-0.1171555370092392
0	5082	0.22993823885917664
0	5470	0.07284378260374069
0	5514	0.008248556405305862
0	5530	0.002994086593389511
0	5538	0.0014946566661819816
0	5554	0.0029843321535736322
0	5576	0.004097139462828636
0	5560	-0.002974272472783923
0	5562	0.0003712457837536931
0	5558	-0.0007413081475533545
0	5602	0.008142920210957527
0	5576	-0.004804020747542381
0	5586	0.001844836981035769
0	5612	0.00479027209803462
0	5610	-0.00036802139948122203
0	5654	0.00809249933809042
0	5698	0.008083777502179146
0	5774	0.013939497992396355
0	5822	0.008785737678408623
0	5850	0.005110919009894133
0	5878	0.005094428546726704
0	5844	-0.006162993144243956
0	5750	-0.01698017679154873
0	5552	-0.035661112517118454
0	5288	-0.04746494069695473
0	5044	-0.04386858269572258
0	4882	-0.02920813485980034
0	4754	-0.02331993170082569
0	4756	0.00036795821506530046
0	4782	0.0047755492851138115
0	4842	0.010958370752632618
0	4916	0.013535100035369396
0	4928	0.002202319912612438
0	5004	0.01399820763617754
0	5022	0.0033261061180382967
0	5074	0.00963938795030117
0	5102	0.005205880384892225
0	5152	0.009323603473603725
0	5178	0.004860600456595421
0	5178	0.0
0	5226	0.009016342461109161
0	5230	0.0007531349547207355
0	5226	-0.000754773907829076
0	5262	0.006808381527662277
0	5252	-0.001895399298518896
0	5270	0.0034194528125226498
0	5272	0.00038086529821157455
0	5316	0.00840175710618496
0	5314	-0.0003830145869869739
0	5300	-0.002689824905246496
0	5324	0.00462742755189538
0	5340	0.0030959751456975937
0	5348	0.0015530361561104655
0	5350	0.000389271677704528
0	5426	0.014811734668910503
0	5528	0.01986110210418701
0	5474	-0.010481773875653744
0	5422	-0.01005504559725523
0	5426	0.0007701490540057421
0	5364	-0.01188619900494814
0	5290	-0.014134186320006847
0	5274	-0.0030473480001091957
0	5294	0.0038005474489182234
0	5268	-0.004929283633828163
0	5308	0.007570882327854633
0	5304	-0.0007557246717624366
0	5802	0.09395162761211395
0	6772	0.18219612538814545
0	6362	-0.07623746991157532
1	4848	-0.2794698476791382
1	3932	-0.16942882537841797
0	5326	0.259916216135025
0	5510	0.0342869907617569
0	5532	0.0040923128835856915
0	5550	0.0033426599111407995
0	5552	0.0003707227879203856
0	5538	-0.0025905456859618425
0	5592	0.009975737892091274
0	5550	-0.0077457427978515625
0	5582	0.005892968736588955
0	5572	-0.0018383704591542482
0	5592	0.0036711618304252625
0	5636	0.008064121939241886
0	5614	-0.004024979192763567
0	5620	0.0010959571227431297
0	5652	0.005838208831846714
0	5676	0.0043753571808338165
0	5714	0.006919155362993479
0	5758	0.007997479289770126
0	5830	0.013060513883829117
0	5860	0.005426590330898762
0	5868	0.0014421342639252543
0	5858	-0.0017962566344067454
0	5810	-0.008593013510107994
0	5692	-0.021056387573480606
0	5494	-0.03525139018893242
0	5258	-0.041969481855630875
0	5000	-0.046030331403017044
0	4872	-0.023079974576830864
0	4760	-0.020377468317747116
0	4776	0.002912621246650815
0	4776	0.0
0	4784	0.0014537172392010689
0	4902	0.021537039428949356
0	4936	0.006229464430361986
0	4978	0.007724185008555651
0	5028	0.009227929636836052
0	5054	0.004813625942915678
0	5126	0.0133744478225708
0	5162	0.00670482637360692
0	5180	0.0033611771650612354
0	5220	0.007487551774829626
0	5234	0.002626740373671055
0	5258	0.004514332860708237
0	5262	0.0007540719816461205
0	5276	0.0026452026795595884
0	5312	0.006818095222115517
0	5264	-0.009111733175814152
0	5286	0.004188136197626591
0	5314	0.005346368066966534
0	5328	0.0026819922495633364
0	5334	0.0011533434735611081
0	5346	0.002314606448635459
0	5340	-0.0011611254885792732
0	5362	0.004270407371222973
0	5374	0.0023342971689999104
0	5428	0.010512517765164375
0	5504	0.01477909181267023
0	5526	0.004264226648956537
0	5410	-0.022389499470591545
0	5444	0.006535110529512167
0	5410	-0.006507260259240866
0	5322	-0.01677447184920311
0	5276	-0.008738601580262184
0	5260	-0.0030323320534080267
0	5284	0.0045392075553536415
0	5274	-0.001887694699689746
0	5302	0.005277376621961594
0	5352	0.009409226477146149
0	6124	0.1450727880001068
0	6948	0.15391704440116882
1	5868	-0.19953933358192444
0	3432	-0.44828304648399353
0	4670	0.23036843538284302
0	5352	0.1273718774318695
0	5480	0.02389218658208847
0	5518	0.00708400085568428
0	5522	0.00074473099084571
0	5572	0.009294256567955017
0	5560	-0.002226675394922495
0	5558	-0.0003705487761180848
0	5574	0.0029601852875202894
0	5556	-0.0033252867870032787
0	5542	-0.002582994056865573
0	5604	0.011424780823290348
0	5610	0.0011039829114452004
0	5612	0.00036746243131347
0	5618	0.0011011464521288872
0	5668	0.009169825352728367
0	5678	0.0018323743715882301
0	5724	0.008415146730840206
0	5792	0.012418579310178757
0	5820	0.005101669114083052
0	5834	0.002543142531067133
0	5826	-0.0014483308186754584
0	5772	-0.009742953814566135
0	5720	-0.009354649111628532
0	5524	-0.035165779292583466
0	5330	-0.034760795533657074
0	5070	-0.04659275710582733
0	4876	-0.034985631704330444
0	4786	-0.016435153782367706
0	4766	-0.0036764706019312143
0	4800	0.006199326366186142
0	4814	0.00255064875818789
0	4888	0.013526192866265774
0	4936	0.008805508725345135
0	4976	0.007364131510257721
0	5048	0.013300001621246338
0	5062	0.002594482386484742
0	5164	0.01896098628640175
0	5168	0.0007453878642991185
0	5182	0.00261545367538929
0	5214	0.0059921350330114365
0	5212	-0.00037527678068727255
0	5236	0.004514389671385288
0	5246	0.00188541691750288
0	5276	0.0056692915968596935
0	5278	0.00037876874557696283
0	5276	-0.00037970358971506357
0	5280	0.0007613440393470228
0	5282	0.00038174737710505724
0	5314	0.006127841770648956
0	5340	0.004995004739612341
0	5348	0.0015418020775541663
0	5414	0.01275904756039381
0	5498	0.01627633534371853
0	5454	-0.008537941612303257
0	5386	-0.013200978748500347
0	5402	0.003104987321421504
0	5402	0.0
0	5294	-0.020842982456088066
0	5264	-0.0057708583772182465
0	5258	-0.0011504979338496923
0	5276	0.0034414194524288177
0	5282	0.001143772155046463
0	5310	0.005324273835867643
0	5774	0.0880221575498581
0	6790	0.19177047908306122
0	6594	-0.03659401461482048
1	4946	-0.30478256940841675
0	3766	-0.21852391958236694
0	4890	0.20997048914432526
0	5382	0.09207620471715927
0	5442	0.01121705025434494
0	5492	0.00933416374027729
0	5470	-0.0041004992090165615
0	5502	0.005956074222922325
0	5528	0.004832534119486809
0	5526	-0.0003711585304699838
0	5556	0.005558780860155821
0	5562	0.0011098642135038972
0	5566	0.0007386342622339725
0	5584	0.003318706527352333
0	5576	-0.0014727722154930234
0	5642	0.012133394367992878
0	5638	-0.0007343312026932836
0	5642	0.0007337026763707399
0	5654	0.002198580652475357
0	5722	0.012438265606760979
0	5778	0.010223331861197948
0	5798	0.0036428545136004686
0	5844	0.008353005163371563
0	5786	-0.010495204478502274
0	5758	-0.0050505660474300385
0	5636	-0.021942446008324623
0	5448	-0.033741340041160583
0	5270	-0.031920235604047775
0	4982	-0.05180228874087334
0	4862	-0.021820826455950737
0	4814	-0.008820935152471066
0	4814	0.0
0	4842	0.005116834305226803
0	4856	0.002559165470302105
0	4930	0.013570511713624
0	4978	0.008830131031572819
0	5022	0.00811987929046154
0	5050	0.005181475076824427
0	5106	0.010391924530267715
0	5152	0.008558563888072968
0	5166	0.0026108361780643463
0	5206	0.007477660663425922
0	5248	0.007868999615311623
0	5250	0.00037545996019616723
0	5278	0.005267448723316193
0	5294	0.0030156057327985764
0	5278	-0.0030222132336348295
0	5274	-0.0007572697941213846
0	5266	-0.0015180649934336543
0	5292	0.004945849534124136
0	5322	0.005722351372241974
0	5366	0.008417186327278614
0	5360	-0.0011509687174111605
0	5428	0.013084807433187962
0	5460	0.0061717284843325615
0	5446	-0.00270531396381557
0	5456	0.001934734988026321
0	5406	-0.00967317633330822
0	5342	-0.012370814569294453
0	5280	-0.011956493370234966
0	5262	-0.0034619378857314587
0	5282	0.0038355812430381775
0	5258	-0.004588969051837921
0	5288	0.005721042398363352
0	5578	0.05515195056796074
0	6452	0.16553658246994019
0	6472	0.0037530965637415648
1	4980	-0.2774643898010254
0	3650	-0.24744494259357452
0	4950	0.24406729638576508
0	5440	0.09211103618144989
0	5514	0.013886804692447186
0	5496	-0.0033713756129145622
0	5550	0.010098490864038467
0	5550	0.0
0	5566	0.0029815146699547768
0	5568	0.0003720607201103121
0	5548	-0.003713928395882249
0	5600	0.009639864787459373
0	5578	-0.004070003982633352
0	5550	-0.005170885473489761
0	5598	0.008851950988173485
0	5604	0.0011049180757254362
0	5636	0.005884083453565836
0	5648	0.002203721785917878
0	5700	0.009538483805954456
0	5754	0.009889989160001278
0	5774	0.0036563072353601456
0	5854	0.014592504128813744
0	5850	-0.0007273608935065567
0	5848	-0.0003624282544478774
0	5794	-0.009751047007739544
0	5646	-0.02664298564195633
0	5452	-0.03484278917312622
0	5204	-0.04449760541319847
0	4994	-0.03776389732956886
0	4842	-0.02757486328482628
0	4740	-0.018688393756747246
0	4766	0.004770700819790363
0	4782	0.0029159123077988625
0	4838	0.010216119699180126
0	4902	0.011718464083969593
0	4954	0.009556949138641357
0	5012	0.010695187374949455
0	5044	0.005920370575040579
0	5098	0.01002189889550209
0	5134	0.006700666155666113
0	5160	0.004852436017245054
0	5182	0.004115842282772064
0	5212	0.005627180449664593
0	5234	0.004136063624173403
0	5252	0.0033907671459019184
0	5262	0.0018878610571846366
0	5294	0.00605418486520648
0	5272	-0.004171248525381088
0	5266	-0.0011403231183066964
0	5280	0.0026680894661694765
0	5302	0.0042053754441440105
0	5304	0.00038346010842360556
0	5344	0.007696254178881645
0	5372	0.0054049184545874596
0	5490	0.022847848013043404
0	5478	-0.002328077796846628
0	5430	-0.00932244025170803
0	5398	-0.006215845234692097
0	5444	0.008924067951738834
0	5348	-0.018570100888609886
0	5306	-0.008097998797893524
0	5276	-0.005763319320976734
0	5266	-0.0019148527644574642
0	5300	0.006490448489785194
0	5300	0.0
0	5484	0.03493361547589302
0	6304	0.15516197681427002
0	6748	0.08333542197942734
1	5720	-0.19091247022151947
1	3344	-0.4395604431629181
0	5014	0.31239867210388184
0	5478	0.08687728643417358
0	5534	0.010465854778885841
0	5540	0.001119096763432026
0	5578	0.0070741549134254456
0	5566	-0.0022294335067272186
0	5576	0.0018543702317401767
0	5568	-0.0014809146523475647
0	5574	0.0011086611775681376
0	5578	0.0007377078873105347
0	5570	-0.001472717965953052
0	5566	-0.0007351499516516924
0	5606	0.007339719217270613
0	5608	0.0003663988027255982
0	5652	0.008049173280596733
0	5684	0.00584816699847579
0	5704	0.003650523256510496
0	5720	0.002915558172389865
0	5798	0.01418560091406107
0	5842	0.00798499770462513
0	5870	0.005066222976893187
0	5892	0.003967109136283398
0	5822	-0.012576055712997913
0	5678	-0.025784887373447418
0	5434	-0.04359270632266998
0	5182	-0.04498607665300369
0	4980	-0.03612518683075905
0	4846	-0.02415488101541996
0	4782	-0.01167002972215414
0	4744	-0.006968811620026827
0	4790	0.008364345878362656
0	4820	0.005462424363940954
0	4882	0.01133427582681179
0	4934	0.009544086642563343
0	4960	0.004789801314473152
0	5006	0.008506545796990395
0	5056	0.00927827414125204
0	5110	0.010052870027720928
0	5110	0.0
0	5164	0.010110718198120594
0	5210	0.008635145612061024
0	5198	-0.0022577326744794846
0	5240	0.007920344360172749
0	5264	0.004536347463726997
0	5276	0.0022731004282832146
0	5270	-0.0011392548913136125
0	5274	0.0007614986388944089
0	5300	0.004963284358382225
0	5302	0.0003828141780104488
0	5312	0.0019201475661247969
0	5350	0.007321396376937628
0	5380	0.005799417849630117
0	5402	0.004266983829438686
0	5522	0.023337827995419502
0	5492	-0.005840363446623087
0	5418	-0.014400809071958065
0	5394	-0.004663393367081881
0	5410	0.003100614994764328
0	5322	-0.016991477459669113
0	5288	-0.006542151793837547
0	5256	-0.0061359102837741375
0	5270	0.00267648883163929
0	5276	0.0011437867069616914
0	5266	-0.0019015503348782659
0	5638	0.07058913260698318
0	6678	0.19650325179100037
0	6396	-0.052727364003658295
1	4978	-0.26293668150901794
1	3478	-0.27836889028549194
0	5160	0.3153277039527893
0	5486	0.06111735850572586
0	5520	0.006363227963447571
0	5570	0.009338928386569023
0	5574	0.0007455824525095522
0	5562	-0.002232447499409318
0	5554	-0.0014856633497402072
0	5574	0.003707640338689089
0	5570	-0.0007401559269055724
0	5576	0.0011083880672231317
0	5604	0.005163765046745539
0	5652	0.008836307562887669
0	5608	-0.00808496493846178
0	5644	0.006605747155845165
0	5662	0.003297991817817092
0	5688	0.004759696312248707
0	5720	0.005851089488714933
0	5782	0.011315658688545227
0	5844	0.011289010755717754
0	5864	0.00363204930908978
0	5868	0.0007240343256853521
0	5862	-0.001082264119759202
0	5768	-0.016893915832042694
0	5646	-0.02186092548072338
0	5392	-0.045413367450237274
0	5110	-0.05038173496723175
0	4922	-0.03369377180933952
0	4776	-0.02644384652376175
0	4744	-0.005853158887475729
0	4754	0.0018317254725843668
0	4804	0.009087824262678623
0	4878	0.013479053042829037
0	4916	0.006947322282940149
0	4996	0.014679975807666779
0	5018	0.0040512168779969215
0	5094	0.014043041504919529
0	5116	0.004076842218637466
0	5182	0.012263706885278225
0	5182	0.0
0	5208	0.004854610655456781
0	5218	0.0018714441685006022
0	5220	0.00037519229226745665
0	5246	0.004890711046755314
0	5272	0.004901837557554245
0	5264	-0.00151179195381701
0	5298	0.006441264413297176
0	5308	0.0018991668475791812
0	5280	-0.005331573076546192
0	5318	0.007258834782987833
0	5306	-0.0022999667562544346
0	5298	-0.0015387969324365258
0	5320	0.004247213713824749
0	5302	-0.0034871557727456093
0	5370	0.013213462196290493
0	5378	0.0015573089476674795
0	5534	0.030370283871889114
0	5530	-0.0007765884511172771
0	5428	-0.019725391641259193
0	5466	0.007317918352782726
0	5432	-0.006517405621707439
0	5386	-0.008779630996286869
0	5290	-0.018255116418004036
0	5288	-0.0003793243085965514
0	5304	0.003027474507689476
0	5274	-0.005665508098900318
0	5276	0.00037709285970777273
0	5320	0.008286564610898495
0	6038	0.13504871726036072
0	6918	0.16463574767112732
1	6002	-0.16953544318675995
1	3544	-0.45271480083465576
0	4592	0.19502513110637665
0	5362	0.14385174214839935
0	5512	0.028002837672829628
0	5534	0.00410095788538456
0	5562	0.005210659466683865
0	5586	0.004458977375179529
0	5588	0.0003709428128786385
0	5602	0.0025916649028658867
0	5586	-0.0029567210003733635
0	5574	-0.002213722560554743
0	5590	0.00294662918895483
0	5570	-0.0036771916784346104
0	5610	0.007342323660850525
0	5600	-0.0018328893929719925
0	5618	0.0032947321888059378
0	5658	0.007317875977605581
0	5658	0.0
0	5708	0.009127418510615826
0	5782	0.013488716445863247
0	5830	0.008730870671570301
0	5870	0.007256192155182362
0	5862	-0.001446166425012052
0	5838	-0.004323545377701521
0	5706	-0.02370349131524563
0	5576	-0.02328413724899292
0	5368	-0.03718801215291023
0	5078	-0.05183384567499161
0	4932	-0.026245776563882828
0	4788	-0.0261980127543211
0	4770	-0.0032990395557135344
0	4764	-0.0010915044695138931
0	4794	0.005451836157590151
0	4874	0.014588424935936928
0	4910	0.00659034913405776
0	4948	0.006983069237321615
0	4984	0.006640514824539423
0	5036	0.009627490304410458
0	5096	0.011146615259349346
0	5128	0.005963548086583614
0	5170	0.007849489338696003
0	5162	-0.0014989132760092616
0	5204	0.007890386506915092
0	5210	0.001129787415266037
0	5230	0.003775437129661441
0	5258	0.005297946278005838
0	5242	-0.003034287365153432
0	5280	0.007225433364510536
0	5268	-0.0022871955297887325
0	5274	0.0011468036100268364
0	5300	0.004985618405044079
0	5310	0.0019240635447204113
0	5354	0.00849639531224966
0	5332	-0.004262133967131376
0	5330	-0.00038873698213137686
0	5344	0.0027278040070086718
0	5390	0.00897631049156189
0	5398	0.0015608740504831076
0	5502	0.020249221473932266
0	5510	0.0015518913278356194
0	5428	-0.015832968056201935
0	5450	0.004229955840855837
0	5424	-0.004977155942469835
0	5356	-0.012965057976543903
0	5306	-0.009504017420113087
0	5278	-0.005308929365128279
0	5242	-0.0068115596659481525
0	5278	0.006800493691116571
0	5288	0.0018861519638448954
0	5394	0.01996910385787487
0	6142	0.14067906141281128
0	6922	0.14580892026424408
1	6040	-0.16308769583702087
1	3392	-0.48712289333343506
0	4672	0.23812182247638702
0	5368	0.129928320646286
0	5482	0.02126680500805378
0	5520	0.00707837101072073
0	5528	0.001487966044805944
0	5530	0.000371392845408991
0	5530	0.0
0	5530	0.0
0	5582	0.00961419939994812
0	5554	-0.005169612355530262
0	5582	0.005162559449672699
0	5562	-0.0036818396765738726
0	5594	0.005883073899894953
0	5622	0.0051412624306976795
0	5612	-0.0018336510984227061
0	5674	0.011360999196767807
0	5682	0.0014644683105871081
0	5704	0.004021055530756712
0	5778	0.013504471629858017
0	5816	0.0069198268465697765
0	5858	0.007626934442669153
0	5862	0.000723955687135458
0	5826	-0.0064927260391414165
0	5764	-0.011142795905470848
0	5604	-0.028672121465206146
0	5286	-0.056878481060266495
0	5056	-0.041165031492710114
0	4904	-0.027382124215364456
0	4778	-0.022976769134402275
0	4770	-0.0014701198088005185
0	4806	0.00656016543507576
0	4838	0.005826515611261129
0	4914	0.013882630504667759
0	4962	0.008798406459391117
0	5012	0.009196361526846886
0	5060	0.008856523782014847
0	5106	0.008512107655405998
0	5102	-0.0007421242189593613
0	5166	0.011905500665307045
0	5182	0.002984072547405958
0	5182	0.0
0	5208	0.004872502759099007
0	5234	0.004883301444351673
0	5244	0.0018824356375262141
0	5226	-0.003396440064534545
0	5246	0.0037830069195479155
0	5262	0.0030345944687724113
0	5270	0.0015213367296382785
0	5280	0.0019069169647991657
0	5306	0.004973728209733963
0	5346	0.007676855195313692
0	5324	-0.004236145876348019
0	5330	0.0011593156959861517
0	5338	0.0015507081989198923
0	5350	0.002332482486963272
0	5366	0.0031151031143963337
0	5472	0.020626850426197052
0	5516	0.008539047092199326
0	5444	-0.013917883858084679
0	5440	-0.0007699118577875197
0	5422	-0.003449773881584406
0	5348	-0.014126810245215893
0	5300	-0.00913369469344616
0	5282	-0.00341677013784647
0	5286	0.0007577480282634497
0	5280	-0.001134658814407885
0	5284	0.0007553916075266898
0	5398	0.021504564210772514
0	5982	0.10995907336473465
0	6948	0.1809576153755188
0	6250	-0.1293279081583023
1	4350	-0.3497318625450134
0	4214	-0.025165922939777374
0	5312	0.20446419715881348
0	5438	0.023453205823898315
0	5494	0.010409954003989697
0	5496	0.0003712136240210384
0	5524	0.0051894779317080975
0	5518	-0.0011102886637672782
0	5498	-0.0036955371033400297
0	5530	0.005905875004827976
0	5562	0.005899197421967983
0	5534	-0.005154259502887726
0	5572	0.0069863214157521725
0	5568	-0.0007343491888605058
0	5590	0.004033539444208145
0	5600	0.0018309205770492554
0	5624	0.0043907794170081615
0	5672	0.00877577904611826
0	5696	0.004381800536066294
0	5760	0.011666625738143921
0	5770	0.001819174038246274
0	5818	0.008709747344255447
0	5828	0.001808863366022706
0	5838	0.0018029280472546816
0	5762	-0.013656947761774063
0	5638	-0.022218240424990654
0	5432	-0.03683307394385338
0	5176	-0.04576386511325836
0	4992	-0.033051516860723495
0	4856	-0.024718882516026497
0	4788	-0.012464714236557484
0	4794	0.0010968921706080437
0	4818	0.004372115712612867
0	4838	0.003654391970485449
0	4934	0.01760541833937168
0	4966	0.005888631101697683
0	5002	0.006646317429840565
0	5058	0.010372035205364227
0	5138	0.014859393239021301
0	5136	-0.00037231468013487756
0	5182	0.008584225550293922
0	5182	0.0
0	5216	0.006373884622007608
0	5238	0.004133473616093397
0	5216	-0.004142034333199263
0	5276	0.011323033832013607
0	5278	0.00037820529541932046
0	5276	-0.00037903193151578307
0	5294	0.00341984280385077
0	5280	-0.0026666666381061077
0	5330	0.009552923031151295
0	5316	-0.002682334743440151
0	5336	0.0038442315999418497
0	5364	0.005398943088948727
0	5356	-0.001547269057482481
0	5398	0.008144480176270008
0	5504	0.020587055012583733
0	5466	-0.0073768263682723045
0	5462	-0.0007750536315143108
0	5424	-0.007340725511312485
0	5410	-0.002694622380658984
0	5324	-0.016486886888742447
0	5286	-0.00726031418889761
0	5274	-0.0022859175223857164
0	5246	-0.005319081246852875
0	5292	0.008721260353922844
0	5284	-0.0015136225847527385
0	5528	0.04608352854847908
0	6596	0.20111480355262756
0	6754	0.029483113437891006
1	5362	-0.25716185569763184
0	3556	-0.3332759439945221
0	4626	0.19945073127746582
0	5316	0.12909099459648132
0	5480	0.030667582526803017
0	5514	0.00634746765717864
0	5516	0.00037282827543094754
0	5572	0.010423775762319565
0	5536	-0.0066887144930660725
0	5572	0.006678705103695393
0	5556	-0.00296296295709908
0	5552	-0.0007397088338620961
0	5574	0.004062488675117493
0	5570	-0.0007375537534244359
0	5578	0.0014732421841472387
0	5614	0.006620567757636309
0	5616	0.00036732296575792134
0	5634	0.003303641453385353
0	5670	0.00660049868747592
0	5716	0.008423262275755405
0	5784	0.012429626658558846
0	5824	0.007294921670109034
0	5844	0.0036364078987389803
0	5836	-0.0014496605144813657
0	5786	-0.009029725566506386
0	5698	-0.01584082469344139
0	5518	-0.03232294321060181
0	5298	-0.03945055976510048
0	5046	-0.045251037925481796
0	4822	-0.04059981554746628
0	4774	-0.00880270916968584
0	4794	0.003681026864796877
0	4790	-0.0007306559127755463
0	4858	0.012408759444952011
0	4902	0.00805162824690342
0	4978	0.013956562615931034
0	5000	0.004053357057273388
0	5070	0.012938045896589756
0	5060	-0.0018540263408795
0	5126	0.012272677384316921
0	5176	0.009323256090283394
0	5182	0.0011214393889531493
0	5226	0.008242891170084476
0	5234	0.0015019712736830115
0	5248	0.002633988391608
0	5266	0.003393579972907901
0	5242	-0.0045346906408667564
0	5284	0.007954444736242294
0	5294	0.001898109563626349
0	5282	-0.0022831629030406475
0	5316	0.006486816797405481
0	5326	0.0019135826732963324
0	5328	0.00038393610157072544
0	5336	0.0015408321050927043
0	5340	0.0007728970376774669
0	5406	0.01278954092413187
0	5394	-0.0023297653533518314
0	5502	0.020984727889299393
0	5502	0.0
0	5434	-0.013156367465853691
0	5430	-0.000770861457567662
0	5442	0.002302879933267832
0	5368	-0.014142469502985477
0	5294	-0.01409058552235365
0	5270	-0.004557308275252581
0	5292	0.0041678245179355145
0	5308	0.003025146434083581
0	5306	-0.0003774107026401907
0	5302	-0.0007537025958299637
0	5700	0.07487958669662476
0	6732	0.19346371293067932
0	6418	-0.05829712748527527
1	4930	-0.27416443824768066
0	3772	-0.213750422000885
0	5038	0.2358068972826004
0	5438	0.07460181415081024
0	5514	0.014159204438328743
0	5556	0.007811627816408873
0	5534	-0.004084916785359383
0	5538	0.0007416105363518
0	5556	0.0033319757785648108
0	5560	0.0007393441628664732
0	5578	0.003322259057313204
0	5580	0.0003685730043798685
0	5598	0.003312192391604185
0	5542	-0.010288317687809467
0	5558	0.0029370731208473444
0	5592	0.006235023494809866
0	5600	0.00146625773049891
0	5652	0.009524972178041935
0	5694	0.0076830205507576466
0	5726	0.00584432203322649
0	5808	0.014950226992368698
0	5848	0.007273344788700342
0	5872	0.004349402152001858
0	5868	-0.0007222736603580415
0	5792	-0.013675788417458534
0	5662	-0.023325080052018166
0	5480	-0.03258573263883591
0	5240	-0.04292459413409233
0	4994	-0.04411870241165161
0	4842	-0.02754654549062252
0	4766	-0.013905661180615425
0	4750	-0.002930438844487071
0	4804	0.00983152911067009
0	4818	0.0025525398086756468
0	4884	0.012078914791345596
0	4926	0.007716238033026457
0	4982	0.01032816432416439
0	5016	0.006292024161666632
0	5062	0.008540238253772259
0	5100	0.007076614070683718
0	5168	0.012699677608907223
0	5182	0.0026213303208351135
0	5232	0.009385206736624241
0	5230	-0.00037626989069394767
0	5244	0.0026390531565994024
0	5262	0.003399775829166174
0	5264	0.0003785393200814724
0	5282	0.003414091421291232
0	5274	-0.0015209318371489644
0	5266	-0.0015249908901751041
0	5278	0.0022941918577998877
0	5322	0.00844054576009512
0	5310	-0.00230973563157022
0	5320	0.0019317450933158398
0	5362	0.008142059668898582
0	5356	-0.0011663923505693674
0	5380	0.0046748388558626175
0	5394	0.002728761173784733
0	5452	0.011293568648397923
0	5518	0.012813212350010872
0	5466	-0.010051286779344082
0	5446	-0.0038485222030431032
0	5446	0.0
0	5356	-0.0171709842979908
0	5318	-0.007225249893963337
0	5238	-0.015169328078627586
0	5284	0.008705195970833302
0	5296	0.002266602823510766
0	5294	-0.0003771023475565016
0	5278	-0.003012426197528839
0	5420	0.02670545130968094
0	6426	0.1888965517282486
0	6590	0.030556349083781242
1	5156	-0.26494717597961426
1	3410	-0.3227396607398987
0	5070	0.3103500008583069
0	5426	0.06663671880960464
0	5500	0.013837466016411781
0	5540	0.007469561416655779
0	5564	0.004474328830838203
0	5536	-0.005210401024669409
0	5558	0.0040873452089726925
0	5576	0.003339311107993126
0	5580	0.0007408504607155919
0	5576	-0.0007396631990559399
0	5574	-0.00036934440140612423
0	5584	0.0018442472210153937
0	5622	0.006999361328780651
0	5614	-0.0014714899007230997
0	5630	0.002940059406682849
0	5648	0.003305299673229456
0	5690	0.007703783456236124
0	5734	0.008058608509600163
0	5782	0.00877577904611826
0	5834	0.00948247592896223
0	5854	0.0036357026547193527
0	5860	0.0010866547236219049
0	5810	-0.009024076163768768
0	5758	-0.00935610756278038
0	5572	-0.03337320312857628
0	5290	-0.05050927400588989
0	5014	-0.049473006278276443
0	4872	-0.025670072063803673
0	4774	-0.017901286482810974
0	4756	-0.003295656992122531
0	4758	0.00036320052458904684
0	4840	0.014919398352503777
0	4878	0.006938527338206768
0	4964	0.015762656927108765
0	4976	0.002207207726314664
0	5040	0.011814367026090622
0	5080	0.007406584452837706
0	5080	0.0
0	5142	0.011549638584256172
0	5182	0.007471701130270958
0	5182	0.0
0	5228	0.008634713478386402
0	5248	0.003762604668736458
0	5258	0.001885725068859756
0	5258	0.0
0	5284	0.004925423767417669
0	5292	0.0015190065605565906
0	5294	0.00038071064045652747
0	5312	0.003435988910496235
0	5312	0.0
0	5322	0.0019210081081837416
0	5340	0.003469634335488081
0	5342	0.00038680731086060405
0	5344	0.0003879778669215739
0	5336	-0.0015560771571472287
0	5388	0.010130002163350582
0	5388	0.0
0	5516	0.024859195575118065
0	5496	-0.0038681228179484606
0	5448	-0.009240483865141869
0	5446	-0.00038331799441948533
0	5442	-0.000763281132094562
0	5348	-0.017868684604763985
0	5308	-0.007581118028610945
0	5284	-0.0045388066209852695
0	5292	0.0015100038144737482
0	5288	-0.0007538067293353379
0	5322	0.0063989958725869656
0	5442	0.02255045622587204
0	6352	0.17068687081336975
0	6732	0.07075823098421097
1	5374	-0.2504580020904541
1	3352	-0.37258613109588623
0	5100	0.3258924186229706
0	5446	0.06457071006298065
0	5490	0.008201712742447853
0	5544	0.010052870027720928
0	5542	-0.00037174721364863217
0	5552	0.0018558844458311796
0	5572	0.0037062661722302437
0	5564	-0.0014801293145865202
0	5564	0.0
0	5556	-0.001475887605920434
0	5550	-0.0011054609203711152
0	5568	0.003312192391604185
0	5564	-0.00073499686550349
0	5602	0.006974950898438692
0	5644	0.007699075620621443
0	5660	0.002930689137428999
0	5714	0.009881182573735714
0	5774	0.01096130721271038
0	5836	0.011304104700684547
0	5826	-0.0018188873073086143
0	5896	0.01269541960209608
0	5834	-0.011204684153199196
0	5794	-0.007204956840723753
0	5656	-0.02478240430355072
0	5408	-0.04443860426545143
0	5182	-0.04047567769885063
0	4970	-0.038027361035346985
0	4812	-0.028577284887433052
0	4766	-0.008417406119406223
0	4744	-0.004040700849145651
0	4798	0.009834274649620056
0	4804	0.0010947041446343064
0	4884	0.014653267338871956
0	4908	0.004412305075675249
0	4990	0.015134363435208797
0	5020	0.005555829964578152
0	5068	0.008918617852032185
0	5100	0.005964362528175116
0	5132	0.0059816064313054085
0	5182	0.009371485561132431
0	5182	0.0
0	5216	0.006402289494872093
0	5230	0.002642074367031455
0	5226	-0.0007564678089693189
0	5256	0.0056869881227612495
0	5246	-0.0019003218039870262
0	5270	0.004572764039039612
0	5288	0.003439271589741111
0	5288	0.0
0	5270	-0.0034620710648596287
0	5320	0.009651267901062965
0	5336	0.003099893918260932
0	5356	0.0038873699959367514
0	5360	0.0007796865538693964
0	5376	0.0031247560400515795
0	5420	0.008594868704676628
0	5378	-0.008191498927772045
0	5504	0.024509485810995102
0	5534	0.005809525493532419
0	5466	-0.013103297911584377
0	5468	0.0003836120886262506
0	5456	-0.0022918551694601774
0	5424	-0.006086350418627262
0	5308	-0.02198774367570877
0	5268	-0.007562866434454918
0	5294	0.004907265305519104
0	5300	0.001130497083067894
0	5308	0.0015051362570375204
0	5270	-0.007140083238482475
0	5656	0.07246558368206024
0	6612	0.17894355952739716
0	6520	-0.017068224027752876
1	5096	-0.26207301020622253
1	3428	-0.3072313666343689
0	5050	0.30209341645240784
0	5434	0.07161061465740204
0	5484	0.009313414804637432
0	5536	0.009673099033534527
0	5556	0.0037147102411836386
0	5538	-0.003337701316922903
0	5574	0.006664362736046314
0	5542	-0.005914607550948858
0	5544	0.00036919440026395023
0	5548	0.0007375356508418918
0	5586	0.006998502183705568
0	5590	0.0007357359281741083
0	5588	-0.00036748492857441306
0	5608	0.003670128993690014
0	5594	-0.002567456802353263
0	5626	0.0058663212694227695
0	5702	0.013918903656303883
0	5758	0.010241404175758362
0	5782	0.00438110763207078
0	5836	0.009836065582931042
0	5868	0.00581015320494771
0	5856	-0.002170924097299576
0	5766	-0.016226936131715775
0	5650	-0.020856307819485664
0	5454	-0.0351678840816021
0	5182	-0.04875076189637184
0	4996	-0.03343158960342407
0	4802	-0.035210415720939636
0	4754	-0.00880335457623005
0	4730	-0.004410899709910154
0	4772	0.007657991256564856
0	4836	0.011689070612192154
0	4882	0.008432218804955482
0	4946	0.011775095015764236
0	4980	0.006278236862272024
0	5036	0.010377416387200356
0	5070	0.00632017245516181
0	5112	0.00783172994852066
0	5134	0.00411332817748189
0	5162	0.005248556844890118
0	5210	0.009019278921186924
0	5220	0.001883452059701085
0	5258	0.007173781283199787
0	5240	-0.0034051781985908747
0	5268	0.00530926464125514
0	5286	0.003420146182179451
0	5242	-0.008378398604691029
0	5280	0.0072570787742733955
0	5276	-0.0007662345888093114
0	5276	0.0
0	5310	0.0065576303750276566
0	5308	-0.00038713173125870526
0	5300	-0.0015540217282250524
0	5292	-0.0015587250236421824
0	5350	0.011327092535793781
0	5376	0.005081102252006531
0	5456	0.015614427626132965
0	5532	0.014789445325732231
0	5492	-0.007747233845293522
0	5462	-0.005782872438430786
0	5444	-0.003453480312600732
0	5382	-0.01184441801160574
0	5312	-0.01332639530301094
0	5246	-0.012530693784356117
0	5284	0.007200969848781824
0	5252	-0.006052352488040924
0	5266	0.002644303487613797
0	5334	0.01282793004065752
0	5686	0.0663108304142952
0	6668	0.18435312807559967
0	6700	0.005951347760856152
1	4634	-0.3807171881198883
1	3658	-0.18050451576709747
0	5230	0.2936268746852875
0	5430	0.037359435111284256
0	5490	0.01119653694331646
0	5516	0.004845683462917805
0	5534	0.003349003382027149
0	5554	0.0037152620498090982
0	5546	-0.0014835511101409793
0	5572	0.0048135071992874146
0	5550	-0.004066392779350281
0	5542	-0.001476486911997199
0	5566	0.004422876052558422
0	5540	-0.0047833980061113834
0	5580	0.00735050905495882
0	5580	0.0
0	5630	0.009169712662696838
0	5638	0.0014662756584584713
0	5678	0.007324844598770142
0	5714	0.0065836794674396515
0	5770	0.010224450379610062
0	5830	0.01092896144837141
0	5816	-0.002542095957323909
0	5810	-0.0010857239831238985
0	5778	-0.005772214382886887
0	5684	-0.016902420669794083
0	5472	-0.03802508860826492
0	5244	-0.04086118936538696
0	5038	-0.03701618313789368
0	4888	-0.02721927873790264
0	4824	-0.01174225751310587
0	4802	-0.004031715914607048
0	4786	-0.002911808667704463
0	4854	0.012408607639372349
0	4910	0.010254782624542713
0	4948	0.006983325816690922
0	5034	0.01585954986512661
0	5048	0.0025897470768541098
0	5102	0.010020287707448006
0	5128	0.0048378692008554935
0	5152	0.0044780573807656765
0	5182	0.00561146205291152
0	5248	0.01237298920750618
0	5226	-0.004132541827857494
0	5250	0.004517108667641878
0	5262	0.002263240050524473
0	5268	0.0011338868644088507
0	5280	0.00227295677177608
0	5264	-0.0030374748166650534
0	5280	0.003045453457161784
0	5286	0.0011451984755694866
0	5336	0.009572798386216164
0	5352	0.0030729833524674177
0	5338	-0.0026968715246766806
0	5394	0.010820279829204082
0	5520	0.024405991658568382
0	5434	-0.016675714403390884
0	5466	0.0062064421363174915
0	5434	-0.006197546608746052
0	5366	-0.013136204332113266
0	5276	-0.01733280159533024
0	5264	-0.0023043539840728045
0	5294	0.005743898916989565
0	5268	-0.004961958155035973
0	5284	0.0030454921070486307
0	5412	0.02430625818669796
0	6126	0.1351862996816635
0	6984	0.16133885085582733
1	5942	-0.19358915090560913
0	3574	-0.43766480684280396
0	4446	0.16272501647472382
0	5284	0.15707002580165863
0	5436	0.02847188338637352
0	5486	0.009354770183563232
0	5476	-0.0018679252825677395
0	5504	0.005222841165959835
