0	5662	0.008160640485584736
0	5636	-0.004797755740582943
0	5616	-0.0036747141275554895
0	5618	0.0003661528171505779
0	5620	0.0003649324062280357
0	5652	0.005821004044264555
0	5628	-0.004353767726570368
0	5652	0.004343158099800348
0	5624	-0.005054334178566933
0	5614	-0.0018011527135968208
0	5666	0.009350051172077656
0	5614	-0.009331483393907547
0	5622	0.0014336403692141175
0	5602	-0.003578969743102789
0	5646	0.007864539511501789
0	5578	-0.012139677070081234
0	5592	0.0024976213462650776
0	5620	0.004992570262402296
0	5634	0.002495276741683483
0	5664	0.005342831835150719
0	5664	0.0
0	5764	0.01778578758239746
0	5704	-0.010657697916030884
0	5658	-0.00816626101732254
0	5540	-0.0209385696798563
0	5524	-0.002840068656951189
0	5458	-0.01172235794365406
0	5426	-0.005688956473022699
0	5422	-0.0007120140362530947
0	5446	0.004277109168469906
0	5456	0.0017839516513049603
0	5456	0.0
0	5470	0.002503278199583292
0	5498	0.005010916851460934
0	5616	0.021132562309503555
0	6504	0.15903528034687042
0	8191	0.3006022572517395
1	6986	-0.2114962637424469
1	3338	-0.6353223919868469
0	4502	0.20544439554214478
0	5384	0.15669691562652588
0	5444	0.010677486658096313
0	5446	0.0003562755009625107
0	5524	0.01390928030014038
0	5616	0.016413427889347076
0	5626	0.0017843866953626275
0	5670	0.007849059998989105
0	5688	0.0032094905618578196
0	5746	0.010337513871490955
0	5798	0.009261952713131905
0	5822	0.004271349404007196
0	5896	0.013157660141587257
0	5926	0.00533001683652401
0	6012	0.01525931991636753
0	6090	0.013810931704938412
0	6200	0.019413935020565987
0	6334	0.023556020110845566
0	6456	0.021337002515792847
0	6624	0.02920672483742237
0	6714	0.015538227744400501
0	6758	0.007541435305029154
0	6732	-0.004423398524522781
0	6606	-0.021282466128468513
0	6294	-0.05236451327800751
0	5782	-0.08555053919553757
0	5172	-0.10183129459619522
0	4630	-0.09115525335073471
0	4186	-0.0761943981051445
0	3950	-0.04115896299481392
0	3840	-0.019116250798106194
0	3888	0.008373747579753399
0	3988	0.017598403617739677
0	4094	0.01881501078605652
0	4248	0.02755543775856495
0	4380	0.023800078779459
0	4570	0.03451407700777054
0	4650	0.014625763520598412
0	4792	0.026123110204935074
0	4866	0.013688663952052593
0	4944	0.014507309533655643
0	5098	0.028795093297958374
0	5152	0.010142750106751919
0	5168	0.0030193235725164413
0	5232	0.012135155498981476
0	5256	0.004573229234665632
0	5306	0.009578299708664417
0	5342	0.006935970392078161
0	5334	-0.0015512093668803573
0	5378	0.008593973703682423
0	5394	0.00315063982270658
0	5426	0.006356352940201759
0	5428	0.0004008069809060544
0	5426	-0.00040432901005260646
0	5496	0.014264947734773159
0	5478	-0.0036881216801702976
0	5536	0.011908672749996185
0	5456	-0.01638493686914444
0	5518	0.012627119198441505
0	5524	0.0012110284296795726
0	5558	0.006790583953261375
0	5566	0.0015797163359820843
0	5568	0.00039061481948010623
0	5586	0.003479740349575877
0	5592	0.0011488677700981498
0	5590	-0.00037969875847920775
0	5614	0.00452176108956337
0	5604	-0.0018717944622039795
0	5616	0.0022328628692775965
0	5622	0.0011107545578852296
0	5592	-0.005527983885258436
0	5630	0.006974353920668364
0	5624	-0.001097641303204
0	5628	0.0007296607363969088
0	5634	0.0010914382291957736
0	5600	-0.006169777829200029
0	5610	0.0018108724616467953
0	5616	0.0010845332872122526
0	5606	-0.0018045763717964292
0	5616	0.0018016287358477712
0	5622	0.0010794342961162329
0	5630	0.001437280559912324
0	5650	0.0035888173151761293
0	5636	-0.0025088407564908266
0	5628	-0.001431827200576663
0	5620	-0.001430700533092022
0	5640	0.0035737259313464165
0	5664	0.004285816103219986
0	5686	0.003923806827515364
0	5790	0.01853039674460888
0	5728	-0.011029542423784733
0	5652	-0.013506469316780567
0	5614	-0.006749795749783516
0	5538	-0.013495915569365025
0	5454	-0.014920777641236782
0	5450	-0.0007110942387953401
0	5458	0.0014233692781999707
0	5446	-0.0021370311733335257
0	5438	-0.0014260249445214868
0	5484	0.008208324201405048
0	5480	-0.0007143537513911724
0	5490	0.0017870758892968297
0	5808	0.056876443326473236
0	7498	0.30193668603897095
0	8191	0.12244825810194016
1	6750	-0.2508369982242584
0	3034	-0.6425619125366211
0	4444	0.24748854339122772
0	5330	0.15658782422542572
0	5414	0.014869975857436657
0	5446	0.0056715128012001514
0	5528	0.014548378996551037
0	5542	0.0024853688664734364
0	5608	0.011724231764674187
0	5648	0.007106773555278778
0	5696	0.008527117781341076
0	5758	0.011009239591658115
0	5744	-0.002484222175553441
0	5804	0.010641630738973618
0	5842	0.006735001690685749
0	5900	0.010276582092046738
0	5982	0.014514216221868992
0	6074	0.01625259779393673
0	6174	0.017618143931031227
0	6322	0.02597782574594021
0	6462	0.02444945089519024
0	6594	0.022917328402400017
0	6718	0.021387791261076927
0	6770	0.008903956972062588
0	6750	-0.003398759523406625
0	6640	-0.018560074269771576
0	6336	-0.05096082389354706
0	5788	-0.09143136441707611
0	5174	-0.10245457291603088
0	4614	-0.09466762095689774
0	4252	-0.0624547079205513
0	4024	-0.039909448474645615
0	3894	-0.022624697536230087
0	3900	0.001047559198923409
0	3992	0.01619737409055233
0	4144	0.026986081153154373
0	4244	0.017891861498355865
0	4446	0.03642045706510544
0	4592	0.02649824135005474
0	4746	0.02812306024134159
0	4822	0.013955538161098957
0	4852	0.005538393277674913
0	4982	0.024134261533617973
0	5070	0.01641443930566311
0	5094	0.004497189540416002
0	5174	0.015060996636748314
0	5228	0.010212701745331287
0	5286	0.011021587066352367
0	5256	-0.0057294187135994434
0	5282	0.004994685295969248
0	5336	0.010443123988807201
0	5356	0.0038961037062108517
0	5358	0.00039276780444197357
0	5382	0.004755551461130381
0	5442	0.011998879723250866
0	5430	-0.0024208840914070606
0	5480	0.010169767774641514
0	5494	0.0028641570825129747
0	5498	0.0008199745207093656
0	5522	0.004908979404717684
0	5534	0.0024393880739808083
0	5584	0.010076582431793213
0	5572	-0.0023932987824082375
0	5572	0.0
0	5566	-0.0011705794604495168
0	5570	0.0007724791648797691
0	5590	0.0038272629026323557
0	5586	-0.0007589365122839808
0	5588	0.0003767519083339721
0	5630	0.007862616330385208
0	5600	-0.0055853440426290035
0	5616	0.0029645366594195366
0	5588	-0.00516357459127903
0	5632	0.008084074594080448
0	5618	-0.0025633827317506075
0	5614	-0.0007300602155737579
0	5662	0.008737334050238132
0	5624	-0.006898888852447271
0	5616	-0.001449432922527194
0	5638	0.003977293148636818
0	5614	-0.004329577088356018
0	5618	0.000720391923096031
0	5598	-0.003596303053200245
0	5594	-0.0007182274130173028
0	5588	-0.0010759758297353983
0	5588	0.0
0	5610	0.003938088193535805
0	5592	-0.0032195751555263996
0	5618	0.004647781606763601
0	5584	-0.006073525175452232
0	5598	0.002499940572306514
0	5620	0.003926982171833515
0	5558	-0.011064578779041767
0	5584	0.004640371073037386
0	5602	0.003212335519492626
0	5596	-0.0010705491295084357
0	5560	-0.006422301754355431
0	5572	0.0021411492489278316
0	5558	-0.0024982155300676823
0	5588	0.005354274529963732
0	5578	-0.0017852041637524962
0	5548	-0.005356313660740852
0	5548	0.0
0	5564	0.002858538180589676
0	5520	-0.007864164188504219
0	5598	0.013949163258075714
0	5532	-0.011804263107478619
0	5534	0.0003579824115149677
0	5580	0.008238019421696663
0	5632	0.009314545430243015
0	5720	0.01576364040374756
0	5726	0.0010741138830780983
0	5696	-0.00536711048334837
0	5590	-0.018952714279294014
0	5544	-0.008224958553910255
0	5468	-0.01359262689948082
0	5426	-0.0075170923955738544
0	5412	-0.00250845099799335
0	5394	-0.003228622255846858
0	5416	0.003951386082917452
0	5442	0.004674521274864674
0	5412	-0.005398726090788841
0	5464	0.009369482286274433
0	5468	0.000721136515494436
0	5944	0.08587510883808136
0	7602	0.29850566387176514
0	8191	0.10478189587593079
1	6110	-0.36451855301856995
0	3042	-0.5357236266136169
0	4542	0.2658176124095917
0	5362	0.14621707797050476
0	5382	0.003570854663848877
0	5434	0.00929340347647667
0	5524	0.016095668077468872
0	5548	0.004293201956897974
0	5566	0.0032193639781326056
0	5592	0.004651079420000315
0	5632	0.007152947597205639
0	5720	0.015727298334240913
0	5760	0.0071428148075938225
0	5792	0.005709901452064514
0	5862	0.012485061772167683
0	5938	0.01354425959289074
0	6004	0.01174523588269949
0	6042	0.006745841354131699
0	6174	0.023364070802927017
0	6276	0.01797916553914547
0	6452	0.030868707224726677
0	6572	0.02091965079307556
0	6698	0.02181629277765751
0	6728	0.005156204104423523
0	6748	0.0034123286604881287
0	6730	-0.0030479372944682837
0	6456	-0.046067193150520325
0	6078	-0.06320259720087051
0	5468	-0.10191749781370163
0	4906	-0.0950271338224411
0	4434	-0.081314817070961
0	4090	-0.059839267283678055
0	3926	-0.028355715796351433
0	3862	-0.011105069890618324
0	3882	0.003500706050544977
0	3990	0.019070714712142944
0	4162	0.03063223510980606
0	4300	0.024777362123131752
0	4454	0.027858177199959755
0	4610	0.028410471975803375
0	4696	0.015756109729409218
0	4826	0.023954302072525024
0	4878	0.009634625166654587
0	4964	0.01602146215736866
0	5026	0.011610051617026329
0	5108	0.015435777604579926
0	5158	0.00946133490651846
0	5182	0.004565804731100798
0	5290	0.020658787339925766
0	5298	0.0015389547916129231
0	5292	-0.0011615001130849123
0	5352	0.01170259714126587
0	5350	-0.000393205409636721
0	5404	0.010711168870329857
0	5428	0.004802561365067959
0	5432	0.0008075369987636805
0	5490	0.011812466196715832
0	5476	-0.0028701070696115494
0	5510	0.006999053526669741
0	5466	-0.00905498769134283
0	5518	0.010660397820174694
0	5532	0.0028490028344094753
0	5536	0.0008061156840994954
0	5540	0.0007974905311129987
0	5544	0.0007886954117566347
0	5564	0.0039008657913655043
0	5588	0.004633622244000435
0	5600	0.0022957425098866224
0	5606	0.0011384335812181234
0	5622	0.0030138639267534018
0	5588	-0.006364022381603718
0	5580	-0.0014891293831169605
0	5562	-0.0033349390141665936
0	5610	0.008855761028826237
0	5604	-0.0011025898857042193
0	5602	-0.00036623328924179077
0	5610	0.0014605291653424501
0	5598	-0.002184784272685647
0	5650	0.009443556889891624
0	5592	-0.010510292835533619
0	5600	0.0014471255708485842
0	5612	0.002166664693504572
0	5568	-0.007932025007903576
0	5612	0.00792164821177721
0	5626	0.002517381915822625
0	5616	-0.0017959985416382551
0	5588	-0.0050232624635100365
0	5584	-0.0007171885808929801
0	5590	0.0010750890942290425
0	5582	-0.0014327673707157373
0	5614	0.005727103445678949
0	5572	-0.007512520998716354
0	5582	0.0017882689135149121
0	5584	0.00035755574936047196
0	5598	0.002502234186977148
0	5594	-0.0007146941497921944
0	5588	-0.0010718497214838862
0	5596	0.0014291328843683004
0	5636	0.007145834621042013
0	5656	0.0035722791217267513
0	5710	0.00964320171624422
0	5662	-0.008565514348447323
0	5604	-0.01034495048224926
0	5508	-0.01711840182542801
0	5466	-0.0074938442558050156
0	5412	-0.009642857126891613
0	5374	-0.006793397478759289
0	5420	0.00823516771197319
0	5440	0.0035843150690197945
0	5430	-0.0017944086575880647
0	5510	0.014369192533195019
0	5458	-0.009345009922981262
0	5776	0.05720110237598419
0	7250	0.2648094594478607
0	8191	0.1674119085073471
1	6806	-0.24271135032176971
0	3108	-0.6435744166374207
0	4216	0.195643350481987
0	5342	0.20043551921844482
0	5416	0.013191906735301018
0	5500	0.014989382587373257
0	5564	0.011428231373429298
0	5574	0.0017857461934909225
0	5596	0.00392882851883769
0	5666	0.012499925680458546
0	5694	0.0049979472532868385
0	5746	0.009276382625102997
0	5748	0.0003564490471035242
0	5824	0.013532843440771103
0	5872	0.008537532761693
0	5920	0.008526613004505634
0	6018	0.01738688163459301
0	6058	0.007081776857376099
0	6194	0.02401370368897915
0	6324	0.022861966863274574
0	6438	0.019947856664657593
0	6588	0.026091039180755615
0	6664	0.013127061538398266
0	6762	0.016806626692414284
0	6768	0.001021259231492877
0	6606	-0.02736625075340271
0	6316	-0.04868848994374275
0	5812	-0.08421286940574646
0	5304	-0.08486421406269073
0	4724	-0.0979536697268486
0	4306	-0.0719994455575943
0	4002	-0.05312580242753029
0	3886	-0.020166663452982903
0	3876	-0.0017418365459889174
0	3934	0.010189381428062916
0	4070	0.024101510643959045
0	4238	0.030026094987988472
0	4370	0.02377978526055813
0	4554	0.03338898345828056
0	4688	0.024470116943120956
0	4810	0.022412188351154327
0	4856	0.008496490307152271
0	4990	0.024887017905712128
0	5050	0.011195979081094265
0	5140	0.016875211149454117
0	5210	0.013185488060116768
0	5218	0.0015136607689782977
0	5256	0.007226349785923958
0	5288	0.0061164419166743755
0	5320	0.006151953246444464
0	5362	0.008126725442707539
0	5378	0.0031175308395177126
0	5398	0.003927781246602535
0	5402	0.0007921210490167141
0	5412	0.001998241525143385
0	5430	0.003629617625847459
0	5456	0.005284552928060293
0	5508	0.010631048120558262
0	5522	0.002868147101253271
0	5544	0.0045003886334598064
0	5568	0.004882216919213533
0	5556	-0.0024203958455473185
0	5562	0.0011976845562458038
0	5564	0.00039482515421696007
0	5610	0.008981217630207539
0	5608	-0.0003862743906211108
0	5590	-0.0034423847682774067
0	5610	0.0037921881303191185
0	5616	0.0011288096429780126
0	5602	-0.0026164636947214603
0	5592	-0.0018583214841783047
0	5606	0.002589108422398567
0	5638	0.0058907270431518555
0	5574	-0.0117347938939929
0	5642	0.012428414076566696
0	5602	-0.007288540713489056
0	5598	-0.0007271228823810816
0	5626	0.005078167654573917
0	5614	-0.002171500353142619
0	5620	0.0010836193105205894
0	5606	-0.002523886738345027
0	5622	0.002880218904465437
0	5634	0.0021570061799138784
0	5588	-0.008256847970187664
0	5636	0.008606263436377048
0	5610	-0.004655493423342705
0	5642	0.005723689217120409
0	5644	0.0003573342983145267
0	5700	0.009997262619435787
0	5768	0.012126687914133072
0	5752	-0.0028495441656559706
0	5714	-0.006760282441973686
0	5608	-0.01883997768163681
0	5544	-0.011371982283890247
0	5486	-0.010307079181075096
0	5444	-0.007469233591109514
0	5444	0.0
0	5478	0.00605765450745821
0	5454	-0.004279346205294132
0	5486	0.005711294244974852
0	5514	0.005000833421945572
0	5480	-0.006075261626392603
0	5702	0.03969767689704895
0	7072	0.24488775432109833
0	8191	0.19825193285942078
1	7112	-0.18833017349243164
1	3460	-0.6318740248680115
0	4392	0.16326911747455597
0	5358	0.1704535335302353
0	5444	0.01519783679395914
0	5474	0.005307072773575783
0	5508	0.006019368302077055
0	5598	0.0159443486481905
0	5630	0.005670307204127312
0	5632	0.0003543062775861472
0	5662	0.0053147198632359505
0	5726	0.011334589682519436
0	5734	0.0014161213766783476
0	5766	0.005661478731781244
0	5844	0.013794486410915852
0	5908	0.011313483119010925
0	5974	0.011656315997242928
0	6008	0.0059955911710858345
0	6098	0.015833456069231033
0	6242	0.025251492857933044
0	6362	0.020950330421328545
0	6494	0.022922903299331665
0	6662	0.028998350724577904
0	6754	0.01577259972691536
0	6774	0.003403540700674057
0	6672	-0.017232155427336693
0	6456	-0.03625519573688507
0	6080	-0.06276814639568329
0	5528	-0.09195555746555328
0	4834	-0.1166105717420578
0	4376	-0.07843092828989029
0	4120	-0.04453464597463608
0	3922	-0.03431344032287598
0	3886	-0.006255792453885078
0	3940	0.0094643859192729
0	4154	0.03783949464559555
0	4246	0.016395000740885735
0	4406	0.028728408738970757
0	4556	0.027126409113407135
0	4672	0.02111445553600788
0	4790	0.02160433493554592
0	4882	0.01693417876958847
0	4954	0.01332182064652443
0	5034	0.014873575419187546
0	5084	0.009338347241282463
0	5178	0.017639553174376488
0	5224	0.008671718649566174
0	5244	0.0037881657481193542
0	5292	0.009135664440691471
0	5338	0.008800010196864605
0	5358	0.00384827540256083
0	5366	0.0015492867678403854
0	5354	-0.0023409761488437653
0	5400	0.009050723165273666
0	5414	0.002779248170554638
0	5450	0.0072115384973585606
0	5490	0.008078740909695625
0	5472	-0.0036592306569218636
0	5516	0.008981792256236076
0	5536	0.0040829661302268505
0	5560	0.004876264836639166
0	5552	-0.0016124914400279522
0	5554	0.0003992812999058515
0	5592	0.007504838984459639
0	5560	-0.006249674595892429
0	5586	0.005024866666644812
0	5628	0.00804289523512125
0	5594	-0.006453980226069689
0	5632	0.0071594552136957645
0	5640	0.0014971367781981826
0	5614	-0.004836489446461201
0	5604	-0.001850732252933085
0	5610	0.0011055152863264084
0	5634	0.0044043161906301975
0	5638	0.0007313683745451272
0	5622	-0.0029156291857361794
0	5644	0.003998206928372383
0	5616	-0.005075712688267231
0	5630	0.002532164566218853
0	5622	-0.001444008550606668
0	5630	0.0014415453188121319
0	5604	-0.0046773809008300304
0	5600	-0.0007185714785009623
0	5586	-0.0025113008450716734
0	5582	-0.0007167174480855465
0	5606	0.004295994061976671
0	5598	-0.0014306664234027267
0	5640	0.007506166119128466
0	5596	-0.007855740375816822
0	5584	-0.002141454955562949
0	5566	-0.0032112656626850367
0	5588	0.003924740012735128
0	5588	0.0
0	5568	-0.0035664611496031284
0	5588	0.003566969884559512
0	5610	0.003923013806343079
0	5584	-0.004635627847164869
0	5626	0.0074902805499732494
0	5626	0.0
0	5742	0.020684244111180305
0	5716	-0.004633314907550812
0	5616	-0.017809651792049408
0	5572	-0.007835688069462776
0	5486	-0.015318662859499454
0	5444	-0.007487787865102291
0	5406	-0.006782484706491232
0	5420	0.0025020253378897905
0	5404	-0.002863278379663825
0	5436	0.005733808036893606
0	5442	0.0010763361351564527
0	5448	0.0010774958645924926
0	5478	0.005393355619162321
0	5576	0.01763160713016987
0	6440	0.1554683893918991
0	8191	0.31346970796585083
0	8028	-0.02873343601822853
1	4820	-0.5575671792030334
1	3736	-0.1892579197883606
0	5290	0.27435633540153503
0	5414	0.02193150483071804
0	5432	0.0031867995858192444
0	5452	0.0035436905454844236
0	5578	0.02234319970011711
0	5568	-0.0017733745044097304
0	5598	0.0053201233968138695
0	5654	0.009930310770869255
0	5680	0.004609302617609501
0	5734	0.009567738510668278
0	5800	0.011686448939144611
0	5840	0.007075429894030094
0	5914	0.013081986457109451
0	5944	0.005297326948493719
0	6036	0.016213834285736084
0	6166	0.022848572582006454
0	6262	0.01680584065616131
0	6394	0.022998251020908356
0	6574	0.03118233010172844
0	6716	0.024436553940176964
0	6808	0.015713870525360107
0	6726	-0.013897284865379333
0	6576	-0.02523878589272499
0	6302	-0.04581301286816597
0	5810	-0.08188672363758087
0	5212	-0.09939993917942047
0	4718	-0.0826755240559578
0	4252	-0.07953032851219177
0	3972	-0.04883550852537155
0	3890	-0.014372684992849827
0	3892	0.0003502381732687354
0	4008	0.02048094943165779
0	4118	0.01958364062011242
0	4258	0.02512051910161972
0	4408	0.027108432725071907
0	4494	0.0156524907797575
0	4628	0.024548718705773354
0	4772	0.026537908241152763
0	4870	0.018158908933401108
0	4938	0.01266341470181942
0	5038	0.01871514320373535
0	5110	0.013539263978600502
0	5166	0.010578945279121399
0	5246	0.01518429908901453
0	5266	0.0038129128515720367
0	5278	0.0022989974822849035
0	5304	0.005009569227695465
0	5334	0.005816057324409485
0	5352	0.003513703588396311
0	5394	0.008264354430139065
0	5410	0.003175863530486822
0	5440	0.006010337732732296
0	5468	0.0056582423858344555
0	5490	0.0044791921973228455
0	5490	0.0
0	5490	0.0
0	5546	0.011468046344816685
0	5544	-0.00040727114537730813
0	5556	0.0024223828222602606
0	5546	-0.001997363520786166
0	5558	0.0023706983774900436
0	5556	-0.0003908285580109805
0	5570	0.0027084893081337214
0	5612	0.00805008877068758
0	5612	0.0
0	5620	0.0015086937928572297
0	5604	-0.002996179973706603
0	5610	0.001116763916797936
0	5622	0.0022219752427190542
0	5600	-0.0040548015385866165
0	5604	0.0007342502940446138
0	5650	0.008414736948907375
0	5652	0.00036465740413405
0	5644	-0.001454334007576108
0	5602	-0.007616882678121328
0	5634	0.005791575647890568
0	5620	-0.002528384095057845
0	5598	-0.003965631127357483
0	5588	-0.0017997048562392592
0	5602	0.002516024513170123
0	5598	-0.000717969611287117
0	5590	-0.0014343258226290345
0	5624	0.006090424954891205
0	5588	-0.00644268374890089
0	5628	0.00715435529127717
0	5600	-0.00500393146649003
0	5576	-0.004286275710910559
0	5598	0.003928384277969599
0	5556	-0.007497232872992754
0	5580	0.004284133203327656
0	5554	-0.004640205297619104
0	5582	0.0049972631968557835
0	5596	0.00249824533239007
0	5572	-0.004282044246792793
0	5588	0.002855375176295638
0	5604	0.0028557830955833197
0	5588	-0.0028560548089444637
0	5634	0.008211939595639706
0	5716	0.014636584557592869
0	5730	0.002497532172128558
0	5626	-0.018538765609264374
0	5578	-0.008555234409868717
0	5506	-0.012838343158364296
0	5398	-0.019274240359663963
0	5434	0.006434163078665733
0	5402	-0.005724986083805561
0	5428	0.0046579958871006966
0	5444	0.0028697492089122534
0	5458	0.002513344632461667
0	5490	0.005749260541051626
0	5462	-0.005033979192376137
0	5820	0.06441552191972733
0	7376	0.27958792448043823
0	8191	0.14492152631282806
1	5900	-0.40119078755378723
0	3220	-0.4685669541358948
0	4700	0.26240047812461853
0	5418	0.1279621720314026
0	5438	0.0035682215820997953
0	5478	0.007141454145312309
0	5528	0.00893223937600851
0	5608	0.014293796382844448
0	5630	0.003930185455828905
0	5658	0.0050010415725409985
0	5680	0.003927378915250301
0	5738	0.010348334908485413
0	5762	0.004278659354895353
0	5806	0.007836107164621353
0	5892	0.015300404280424118
0	5934	0.0074644992128014565
0	6040	0.018816234543919563
0	6086	0.008145581930875778
0	6200	0.020126527175307274
0	6348	0.026022894307971
0	6494	0.025529086589813232
0	6642	0.0257198978215456
0	6706	0.01104279700666666
0	6764	0.009934511967003345
0	6712	-0.00884018000215292
0	6546	-0.028021449223160744
0	6252	-0.04933520406484604
0	5716	-0.0895487442612648
0	5152	-0.09428127110004425
0	4424	-0.1232234388589859
0	4078	-0.059836745262145996
0	3892	-0.032508011907339096
0	3812	-0.013927414081990719
0	3884	0.012599600479006767
0	3968	0.014832253567874432
0	4126	0.028142254799604416
0	4230	0.018673913553357124
0	4414	0.03329714015126228
0	4552	0.025154022499918938
0	4742	0.03486068174242973
0	4852	0.02029620110988617
0	4958	0.019658267498016357
0	4992	0.006336033344268799
0	5114	0.02284444496035576
0	5156	0.007898597046732903
0	5226	0.013225346803665161
0	5232	0.0011386784026399255
0	5272	0.007630189880728722
0	5292	0.003834943752735853
0	5302	0.0019286652095615864
0	5362	0.011650334112346172
0	5356	-0.0011736323358491063
0	5374	0.003550669178366661
0	5446	0.014328167773783207
0	5456	0.0020075752399861813
0	5454	-0.00040491842082701623
0	5468	0.0028554722666740417
0	5500	0.006561769172549248
0	5518	0.0036964528262615204
0	5502	-0.0032775243744254112
0	5550	0.009760727174580097
0	5554	0.0008053582860156894
0	5558	0.0007964742835611105
0	5594	0.007086148951202631
0	5550	-0.008564754389226437
0	5622	0.013872653245925903
0	5606	-0.0030534740071743727
0	5610	0.0007567445281893015
0	5598	-0.002253239043056965
0	5618	0.0037309720646589994
0	5630	0.0022264551371335983
0	5594	-0.006647381465882063
0	5616	0.00404644850641489
0	5576	-0.007329139858484268
0	5606	0.005481387488543987
0	5624	0.0032798433676362038
0	5630	0.0010906446259468794
0	5638	0.0014506945153698325
0	5620	-0.003256857628002763
0	5588	-0.005778537597507238
0	5608	0.00360537925735116
0	5608	0.0
0	5616	0.0014378490159288049
0	5614	-0.00035894184838980436
0	5636	0.003944396041333675
0	5602	-0.00608933437615633
0	5616	0.0025051594711840153
0	5598	-0.0032180785201489925
0	5596	-0.00035735557321459055
0	5610	0.0025003275368362665
0	5648	0.006782242562621832
0	5630	-0.0032107692677527666
0	5714	0.014976821839809418
0	5804	0.01603173092007637
0	5726	-0.01387686375528574
0	5658	-0.01208516489714384
0	5586	-0.012793328613042831
0	5522	-0.011373194865882397
0	5472	-0.008889942429959774
0	5480	0.001423453795723617
0	5442	-0.006766944192349911
0	5458	0.002852422883734107
0	5482	0.00428209500387311
0	5504	0.003928384277969599
0	5486	-0.003215510630980134
0	5462	-0.004290413111448288
0	6014	0.09877485781908035
0	7872	0.33171069622039795
0	8191	0.056204188615083694
1	5984	-0.3830644190311432
0	3052	-0.5077378749847412
0	4730	0.2949327230453491
0	5434	0.12437796592712402
0	5460	0.004598432686179876
0	5482	0.003894517431035638
0	5522	0.007087381090968847
0	5560	0.006736195646226406
0	5620	0.010639619082212448
0	5650	0.005319117568433285
0	5700	0.008862366899847984
0	5728	0.0049602878279984
0	5754	0.004603806883096695
0	5842	0.015570719726383686
0	5848	0.0010608391603454947
0	5936	0.015554940328001976
0	6014	0.013770295307040215
0	6106	0.01620793156325817
0	6232	0.022130239754915237
0	6350	0.02063935250043869
0	6472	0.021230313926935196
0	6626	0.026645595207810402
0	6752	0.021653082221746445
0	6736	-0.0027293663006275892
0	6708	-0.004742573946714401
0	6492	-0.036338552832603455
0	6082	-0.06858901679515839
0	5454	-0.10469633340835571
0	4864	-0.09866825491189957
0	4386	-0.08130127191543579
0	4084	-0.05249860882759094
0	3888	-0.03445123881101608
0	3866	-0.0038481270894408226
0	3932	0.01160283200442791
0	4070	0.02447589486837387
0	4246	0.0314742848277092
0	4366	0.021619025617837906
0	4464	0.01777896098792553
0	4644	0.032873108983039856
0	4748	0.019106876105070114
0	4852	0.019213005900382996
0	4942	0.01671391911804676
0	5046	0.019408296793699265
0	5040	-0.0011246626963838935
0	5170	0.024490410462021828
0	5226	0.010594823397696018
0	5298	0.013683184050023556
0	5328	0.005727303680032492
0	5340	0.002302320208400488
0	5326	-0.0027014510706067085
0	5372	0.008935046382248402
0	5370	-0.0003912669199053198
0	5414	0.00867895781993866
0	5422	0.0015919975703582168
0	5484	0.012446466833353043
0	5486	0.00040481460746377707
0	5488	0.000407581013860181
0	5500	0.0024553935509175062
0	5522	0.004500143229961395
0	5538	0.003258213633671403
0	5560	0.004445282276719809
0	5546	-0.0028009710367769003
0	5582	0.00712372874841094
0	5550	-0.006261332426220179
0	5580	0.00580870034173131
0	5594	0.0026845638640224934
0	5586	-0.0015209318371489644
0	5600	0.0026412103325128555
0	5588	-0.0022478364408016205
0	5632	0.008193770423531532
0	5588	-0.008149053901433945
0	5604	0.0029498888179659843
0	5610	0.0011017260840162635
0	5618	0.0014639145229011774
0	5620	0.0003646928525995463
0	5624	0.0007273961091414094
0	5598	-0.004716695751994848
0	5612	0.0025351601652801037
0	5606	-0.001084637944586575
0	5640	0.006136445794254541
0	5624	-0.0028822943568229675
0	5636	0.002158454619348049
0	5620	-0.00287335691973567
0	5616	-0.0007174544734880328
0	5652	0.006449609529227018
0	5612	-0.007159050088375807
0	5616	0.0007153673213906586
0	5602	-0.0025018765591084957
0	5596	-0.0010715816169977188
0	5622	0.004641476087272167
0	5554	-0.012133179232478142
0	5598	0.007851161062717438
0	5550	-0.008562254719436169
0	5606	0.009991198778152466
0	5588	-0.0032103874254971743
0	5574	-0.0024968490470200777
0	5610	0.006421233061701059
0	5598	-0.0021401054691523314
0	5614	0.0028535081073641777
0	5636	0.003922967240214348
0	5626	-0.0017831245204433799
0	5708	0.01461831945925951
0	5702	-0.0010689725168049335
0	5686	-0.002849036827683449
0	5574	-0.019935209304094315
0	5520	-0.009614243172109127
0	5480	-0.007126059848815203
0	5396	-0.014975219964981079
0	5358	-0.006783210672438145
0	5398	0.007150774355977774
0	5382	-0.0028644404374063015
0	5424	0.0075300307944417
0	5418	-0.001077083288691938
0	5446	0.005032471381127834
0	5448	0.00035982870031148195
0	5864	0.07493605464696884
0	7516	0.2971329987049103
0	8191	0.12003983557224274
1	5738	-0.4296398460865021
0	3132	-0.4560595154762268
0	4706	0.27951580286026
0	5386	0.12136572599411011
0	5394	0.0014296351000666618
0	5460	0.011805460788309574
0	5536	0.013606010936200619
0	5532	-0.0007163280970416963
0	5602	0.012538885697722435
0	5622	0.0035827099345624447
0	5666	0.007880832068622112
0	5742	0.013608122244477272
0	5756	0.002505174372345209
0	5806	0.008940119296312332
0	5868	0.011079276911914349
0	5922	0.009640160016715527
0	6020	0.017470570281147957
0	6080	0.010667994618415833
0	6250	0.030125996097922325
0	6346	0.016935298219323158
0	6512	0.0291212759912014
0	6626	0.019864896312355995
0	6744	0.02041628398001194
0	6780	0.006180151365697384
0	6676	-0.0177163016051054
0	6540	-0.023003151640295982
0	6164	-0.06320708245038986
0	5648	-0.0863950103521347
0	5080	-0.09521627426147461
0	4540	-0.09177170693874359
0	4126	-0.07184423506259918
0	3920	-0.036085061728954315
0	3818	-0.01778552681207657
0	3878	0.010516352951526642
0	3958	0.014146439731121063
0	4114	0.027821041643619537
0	4234	0.021573422476649284
0	4424	0.034426525235176086
0	4576	0.02772676944732666
0	4690	0.020925622433423996
0	4822	0.024368632584810257
0	4886	0.011876778677105904
0	4994	0.020148752257227898
0	5080	0.01612076722085476
0	5106	0.004895930178463459
0	5202	0.01816415786743164
0	5222	0.0038014622405171394
0	5292	0.01337273046374321
0	5292	0.0
0	5330	0.007341103628277779
0	5376	0.008945123292505741
0	5354	-0.00430983817204833
0	5402	0.009482042863965034
0	5402	0.0
0	5438	0.0072412267327308655
0	5454	0.003245260566473007
0	5470	0.00326926470734179
0	5508	0.007801380008459091
0	5516	0.0016439707251265645
0	5530	0.0028683822602033615
0	5560	0.006105254869908094
0	5534	-0.0052402447909116745
0	5570	0.00717789214104414
0	5532	-0.007489455863833427
0	5590	0.011308394372463226
0	5566	-0.004630224779248238
0	5590	0.004587389528751373
0	5646	0.010612225160002708
0	5644	-0.0003761048137675971
0	5656	0.002241621958091855
0	5642	-0.0025995890609920025
0	5604	-0.007020396180450916
0	5608	0.0007357359281741083
0	5634	0.004764347802847624
0	5636	0.00036525234463624656
0	5638	0.0003640776558313519
0	5620	-0.0032680530566722155
0	5624	0.0007244889275170863
0	5586	-0.006868876516819
0	5628	0.007578491698950529
0	5628	0.0
0	5598	-0.005395359825342894
0	5642	0.007901635952293873
0	5582	-0.010759500786662102
0	5624	0.007523555774241686
0	5634	0.0017893356271088123
0	5606	-0.005004766397178173
0	5602	-0.0007143877446651459
0	5596	-0.0010709823109209538
0	5596	0.0
0	5568	-0.004993579350411892
0	5598	0.00535000953823328
0	5572	-0.00463491166010499
0	5590	0.003208746900781989
0	5562	-0.0049896640703082085
0	5620	0.01033745240420103
0	5628	0.0014253981644287705
0	5630	0.00035626915632747114
0	5726	0.017102543264627457
0	5738	0.0021367776207625866
0	5632	-0.018865685909986496
0	5608	-0.0042717293836176395
0	5512	-0.017086511477828026
0	5424	-0.015671562403440475
0	5400	-0.004279396962374449
0	5436	0.006428112275898457
0	5468	0.00572075555101037
0	5404	-0.011451884172856808
0	5458	0.009675223380327225
0	5494	0.006455083377659321
0	5464	-0.0053835478611290455
0	5620	0.028021937236189842
0	6598	0.1756528615951538
0	8191	0.2844812273979187
0	7598	-0.10427962988615036
1	4226	-0.5861867666244507
0	3784	-0.0774691104888916
0	5156	0.2430569976568222
0	5404	0.04405051842331886
0	5456	0.009246909990906715
0	5502	0.008186752907931805
0	5550	0.008546045050024986
0	5582	0.005698986817151308
0	5626	0.007835641503334045
0	5676	0.008902234956622124
0	5694	0.003202637890353799
0	5714	0.003556925570592284
0	5762	0.008532270789146423
0	5818	0.00994653720408678
0	5878	0.010651202872395515
0	5960	0.0145445941016078
0	6018	0.010267728008329868
0	6102	0.014834612607955933
0	6228	0.022174900397658348
0	6328	0.01751650869846344
0	6488	0.027875373139977455
0	6622	0.023203864693641663
0	6720	0.016857702285051346
0	6780	0.010243743658065796
0	6704	-0.012878518551588058
0	6574	-0.02187950536608696
0	6208	-0.061218004673719406
0	5638	-0.09502797573804855
0	5036	-0.10090117901563644
0	4466	-0.09725192189216614
0	4120	-0.06010422855615616
0	3920	-0.03476366400718689
0	3878	-0.007294621784240007
0	3944	0.01154842134565115
0	3982	0.006706198211759329
0	4162	0.03204405680298805
0	4302	0.02512292191386223
0	4484	0.03290544077754021
0	4618	0.024388467893004417
0	4768	0.027468504384160042
0	4844	0.013994942419230938
0	4932	0.016289658844470978
0	5014	0.015252597630023956
0	5114	0.018687397241592407
0	5152	0.007132489234209061
0	5192	0.007542141713202
0	5226	0.00644191587343812
0	5308	0.01561448723077774
0	5312	0.0007655404624529183
0	5348	0.0069303628988564014
0	5388	0.007749134674668312
0	5380	-0.0015609146794304252
0	5404	0.004720878321677446
0	5430	0.005158798769116402
0	5450	0.0040040574967861176
0	5454	0.0008075696532614529
0	5488	0.0069164736196398735
0	5534	0.009403492324054241
0	5496	-0.007773610297590494
0	5548	0.010604309849441051
0	5554	0.0012146404478698969
0	5542	-0.002405998995527625
0	5584	0.008330688811838627
0	5562	-0.004315022844821215
0	5600	0.007375204004347324
0	5602	0.00038414751179516315
0	5614	0.002283829264342785
0	5638	0.004529953934252262
0	5550	-0.016490105539560318
0	5636	0.016022058203816414
0	5640	0.0007412165869027376
0	5642	0.00036879500839859247
0	5638	-0.0007343851029872894
0	5648	0.0018289784202352166
0	5622	-0.00473991222679615
0	5592	-0.005453553982079029
0	5598	0.0010880734771490097
0	5608	0.0018093871185556054
0	5620	0.0021673429291695356
0	5600	-0.0036055524833500385
0	5576	-0.00432012090459466
0	5606	0.00539406668394804
0	5622	0.002872943878173828
0	5632	0.0017932502087205648
0	5642	0.001791087444871664
0	5596	-0.008229568600654602
0	5640	0.007865101099014282
0	5610	-0.005357717163860798
0	5594	-0.0028561570215970278
0	5596	0.00035681150620803237
0	5610	0.002496968023478985
0	5594	-0.0028527278918772936
0	5602	0.0014259233139455318
0	5630	0.004990197718143463
0	5658	0.0049881828017532825
0	5668	0.001780880382284522
0	5758	0.016021646559238434
0	5742	-0.00284586101770401
0	5694	-0.008532322011888027
0	5602	-0.016339674592018127
0	5556	-0.008171482011675835
0	5462	-0.016706557944417
0	5404	-0.010319305583834648
0	5454	0.008908315561711788
0	5392	-0.011059053242206573
0	5442	0.008930804207921028
0	5448	0.0010726545006036758
0	5470	0.003936585038900375
0	5492	0.0039398279041051865
0	5556	0.011470082215964794
0	6502	0.16958673298358917
0	8191	0.30111604928970337
0	7662	-0.09288360923528671
1	4616	-0.5285166501998901
0	4178	-0.07644735276699066
0	5226	0.1844864785671234
0	5450	0.039518021047115326
0	5468	0.003179107327014208
0	5494	0.00459588598459959
0	5528	0.006013548467308283
0	5554	0.00460044015198946
0	5622	0.012035895138978958
0	5654	0.0056630149483680725
0	5698	0.00778425857424736
0	5718	0.0035368807148188353
0	5778	0.010606890544295311
0	5786	0.0014133360236883163
0	5856	0.012364652007818222
0	5934	0.013768511824309826
0	6012	0.013749096542596817
0	6138	0.02215670235455036
0	6232	0.016473406925797462
0	6362	0.02268035151064396
0	6578	0.03747549280524254
0	6690	0.019306238740682602
0	6702	0.0020532123744487762
0	6762	0.010192814283072948
0	6642	-0.02023506537079811
0	6420	-0.037189874798059464
0	6010	-0.06832991540431976
0	5474	-0.08910413831472397
0	4898	-0.09630228579044342
0	4426	-0.08038968592882156
0	4102	-0.05621551722288132
0	3898	-0.03550048917531967
0	3874	-0.004183322191238403
0	3942	0.011946591548621655
0	4042	0.01772504858672619
0	4238	0.03503628820180893
0	4356	0.021252324804663658
0	4470	0.020677397027611732
0	4620	0.027386588975787163
0	4702	0.015063191764056683
0	4850	0.027346637099981308
0	4916	0.012259150855243206
0	4988	0.013440358452498913
0	5052	0.0120060034096241
0	5152	0.018845878541469574
0	5180	0.00530028622597456
0	5212	0.006086427252739668
0	5278	0.012617251835763454
0	5360	0.015762360766530037
0	5400	0.0077321575954556465
0	5374	-0.005057250615209341
0	5408	0.00666535971686244
0	5422	0.0027677465695887804
0	5426	0.0007975117187015712
0	5406	-0.004023281391710043
0	5434	0.00567966653034091
0	5484	0.010210332460701466
0	5500	0.003279046854004264
0	5534	0.006966737098991871
0	5544	0.0020401780493557453
0	5530	-0.002834696788340807
0	5570	0.008021819405257702
0	5516	-0.010709752328693867
0	5528	0.0023543876595795155
0	5590	0.012039458379149437
0	5564	-0.004998717922717333
0	5590	0.004956597927957773
0	5608	0.003404791932553053
0	5620	0.002253690268844366
0	5616	-0.0007465565577149391
0	5592	-0.004454012494534254
0	5626	0.0062810201197862625
0	5614	-0.00220718071796
0	5604	-0.001832284964621067
0	5620	0.0029218050185590982
0	5600	-0.0036418817471712828
0	5626	0.004722407553344965
0	5600	-0.004710599780082703
0	5604	0.000723301141988486
0	5600	-0.0007222389103844762
0	5632	0.00577096501365304
0	5638	0.0010803802870213985
0	5582	-0.0100696487352252
0	5616	0.006107857450842857
0	5602	-0.002512142062187195
0	5636	0.006093772128224373
0	5654	0.0032222261652350426
0	5602	-0.009299220517277718
0	5618	0.002859559841454029
0	5602	-0.0028581295628100634
0	5596	-0.0010714285308495164
0	5606	0.0017850130097940564
0	5600	-0.0010707784676924348
0	5636	0.0064214617013931274
0	5596	-0.007130379322916269
0	5558	-0.0067736185155808926
0	5568	0.0017825948307290673
0	5602	0.006061614491045475
0	5596	-0.0010697348043322563
0	5590	-0.0010698874248191714
0	5620	0.00535026378929615
0	5600	-0.0035662490408867598
0	5612	0.002140080090612173
0	5668	0.009987158700823784
0	5730	0.011053006164729595
0	5756	0.004632104188203812
0	5620	-0.024207040667533875
0	5580	-0.007119971327483654
0	5508	-0.01281746942549944
0	5454	-0.009618581272661686
0	5398	-0.009983479976654053
0	5420	0.003927542828023434
0	5418	-0.00035751311224885285
0	5410	-0.0014314514119178057
0	5444	0.0060911523178219795
0	5492	0.008607394993305206
0	5450	-0.0075379591435194016
0	5660	0.03773584961891174
0	6808	0.2062176764011383
0	8191	0.2466735541820526
1	6942	-0.21939609944820404
0	3050	-0.6783127188682556
0	4328	0.22609196603298187
0	5322	0.17717833817005157
0	5398	0.013572155497968197
0	5414	0.002860667649656534
0	5486	0.01288406178355217
0	5538	0.009309708140790462
0	5568	0.005373038351535797
0	5602	0.006090461276471615
0	5638	0.00644826190546155
0	5670	0.005731172394007444
0	5728	0.01038341037929058
0	5816	0.01574324071407318
0	5828	0.002144912723451853
0	5906	0.013933796435594559
0	5946	0.007139160297811031
0	6056	0.019594687968492508
0	6154	0.01740788295865059
0	6248	0.016633734107017517
0	6398	0.02641945891082287
0	6526	0.022413017228245735
0	6652	0.021921303123235703
0	6734	0.014164876192808151
0	6788	0.009257513098418713
0	6664	-0.021095970645546913
0	6466	-0.033463090658187866
0	6046	-0.07057835161685944
0	5528	-0.0868588238954544
0	4930	-0.10099588334560394
0	4428	-0.08636806905269623
0	4116	-0.054464202374219894
0	3910	-0.03573865443468094
0	3854	-0.009738904424011707
0	3920	0.011576510034501553
0	3974	0.009554252959787846
0	4162	0.033547867089509964
0	4316	0.027698839083313942
0	4438	0.022105185315012932
0	4556	0.021527348086237907
0	4660	0.019094714894890785
0	4766	0.01957911066710949
0	4876	0.02043166570365429
0	4978	0.019046196714043617
0	5076	0.018395233899354935
0	5116	0.007543753832578659
0	5178	0.011751177720725536
0	5238	0.011427555233240128
0	5260	0.004211977124214172
0	5316	0.010782917030155659
0	5304	-0.002324530156329274
0	5362	0.011315159499645233
0	5354	-0.0015726154670119286
0	5346	-0.0015861057909205556
0	5428	0.016408095136284828
0	5422	-0.0012115826830267906
0	5468	0.009367109276354313
0	5466	-0.00041004334343597293
0	5492	0.005351776257157326
0	5492	0.0
0	5500	0.0016407788498327136
0	5520	0.004072103183716536
0	5550	0.006050501484423876
0	5604	0.010772136971354485
0	5572	-0.006310060620307922
0	5572	0.0
0	5626	0.010425515472888947
0	5640	0.002677683485671878
0	5622	-0.003413918660953641
0	5592	-0.005647590383887291
0	5636	0.008229631930589676
0	5642	0.0011154351523146033
0	5604	-0.007026280742138624
0	5616	0.002208914142102003
0	5616	0.0
0	5606	-0.0018275522161275148
0	5608	0.00036442262353375554
0	5618	0.0018173666903749108
0	5630	0.0021758314687758684
0	5626	-0.0007236588280647993
0	5644	0.00325038842856884
0	5638	-0.0010812499094754457
0	5594	-0.007916041649878025
0	5608	0.0025151206646114588
0	5616	0.0014349604025483131
0	5608	-0.0014333492144942284
0	5594	-0.0025055778678506613
0	5618	0.004292049910873175
0	5606	-0.002144082449376583
0	5596	-0.0017855229089036584
0	5624	0.004996371455490589
0	5614	-0.0017831032164394855
0	5624	0.0017821076326072216
0	5600	-0.004275179002434015
0	5608	0.0014250935055315495
0	5598	-0.0017809862038120627
0	5538	-0.010684267617762089
0	5592	0.009620866738259792
0	5588	-0.0007128599681891501
0	5558	-0.0053475298918783665
0	5582	0.004278888460248709
0	5590	0.0014267540536820889
0	5572	-0.003211189294233918
0	5576	0.0007137333741411567
0	5550	-0.004640371073037386
0	5560	0.001785459229722619
0	5574	0.0025003275368362665
0	5590	0.00285809556953609
0	5600	0.00178660755045712
0	5644	0.00786247756332159
0	5748	0.018582047894597054
0	5660	-0.015713537111878395
0	5606	-0.009641135111451149
0	5518	-0.015710357576608658
0	5466	-0.009288367815315723
0	5460	-0.001072692801244557
0	5402	-0.010378517210483551
0	5414	0.0021497413981705904
0	5414	0.0
0	5396	-0.0032322555780410767
0	5444	0.00862967874854803
0	5440	-0.0007199164829216897
0	5458	0.0032430095598101616
0	6056	0.10784749686717987
0	7886	0.32913273572921753
0	8191	0.054116394370794296
1	5630	-0.4475369155406952
0	3176	-0.42860886454582214
0	5002	0.3234739899635315
0	5400	0.07075010985136032
0	5412	0.0021351680625230074
0	5466	0.009617953561246395
0	5468	0.00035648292396217585
0	5560	0.01640835404396057
0	5624	0.011415593326091766
0	5652	0.004992125555872917
0	5644	-0.0014255421701818705
0	5730	0.015318209305405617
0	5730	0.0
0	5766	0.006402010563760996
0	5836	0.012439358979463577
0	5930	0.016695577651262283
0	5968	0.006738504394888878
0	6040	0.012740432284772396
0	6200	0.028225164860486984
0	6370	0.0298603605479002
0	6494	0.021665064617991447
0	6606	0.0194447822868824
0	6746	0.02413945645093918
0	6756	0.001711147022433579
0	6722	-0.005773116368800402
0	6508	-0.03607572615146637
0	6156	-0.05898551270365715
0	5616	-0.09013770520687103
0	5076	-0.0903589278459549
0	4526	-0.09349766373634338
0	4200	-0.05659394711256027
0	3942	-0.04516279697418213
0	3822	-0.02091248147189617
0	3894	0.012634091079235077
0	3968	0.013100436888635159
0	4140	0.03071136213839054
0	4272	0.02375667355954647
0	4422	0.027191316708922386
0	4576	0.02810971438884735
0	4702	0.02314644679427147
0	4794	0.016999471932649612
0	4906	0.020803922787308693
0	4954	0.008961688727140427
0	5084	0.024389024823904037
0	5134	0.009420571848750114
0	5198	0.012111730873584747
0	5234	0.006844453513622284
0	5304	0.013370856642723083
0	5330	0.004989700857549906
0	5368	0.0073334532789886
0	5342	-0.005050177685916424
0	5382	0.007827891036868095
0	5368	-0.002761813346296549
0	5406	0.007564898580312729
0	5412	0.0012052548117935658
0	5456	0.00891675055027008
0	5486	0.006123115308582783
0	5484	-0.00041007695836015046
0	5530	0.00944028701633215
0	5498	-0.0065468233078718185
0	5562	0.01300742570310831
0	5570	0.0016110626747831702
0	5556	-0.0027888817712664604
0	5576	0.00393876526504755
0	5598	0.004285324830561876
0	5614	0.0030839608516544104
0	5584	-0.00572817912325263
0	5596	0.002272296929731965
0	5628	0.006014886777848005
0	5626	-0.0003734687634278089
0	5634	0.0014853323809802532
0	5644	0.0018470631912350655
0	5624	-0.0036774168256670237
0	5624	0.0
0	5626	0.0003650345606729388
0	5672	0.008370738476514816
0	5636	-0.0065322318114340305
0	5646	0.0018101077293977141
0	5614	-0.005780416540801525
0	5612	-0.0003606592945288867
0	5636	0.004321573302149773
0	5614	-0.003954463638365269
0	5630	0.002871981356292963
0	5600	-0.00537653686478734
0	5656	0.010024583898484707
0	5620	-0.006435006391257048
0	5586	-0.006071573123335838
0	5624	0.006781838834285736
0	5586	-0.006776195485144854
0	5602	0.00285218539647758
0	5588	-0.0024941209703683853
0	5630	0.0074812076054513454
0	5598	-0.005697937682271004
0	5582	-0.002848258940503001
0	5642	0.010680591687560081
0	5598	-0.007830388844013214
0	5600	0.00035596053930930793
0	5602	0.0003559267788659781
0	5572	-0.00533871166408062
0	5590	0.003204291220754385
0	5604	0.002492759143933654
0	5578	-0.004630234092473984
0	5614	0.006413605995476246
0	5666	0.009264647960662842
0	5704	0.006768631748855114
0	5616	-0.015667470172047615
0	5538	-0.013891692273318768
0	5480	-0.01033573318272829
0	5392	-0.015697279945015907
0	5412	0.0035722791217267513
0	5430	0.003218884114176035
0	5392	-0.006803776603192091
0	5428	0.006454234477132559
0	5440	0.002154011745005846
0	5452	0.0021560760214924812
0	5446	-0.0010793566470965743
0	5928	0.08679888397455215
0	7848	0.3450465500354767
0	8191	0.060830701142549515
1	6156	-0.35543161630630493
1	2984	-0.5522380471229553
0	4866	0.33267927169799805
0	5416	0.09766260534524918
0	5436	0.0035551972687244415
0	5456	0.0035582755226641893
0	5522	0.011755276471376419
0	5568	0.008196770213544369
0	5616	0.008554777130484581
0	5656	0.007128388155251741
0	5714	0.010331008583307266
0	5732	0.003203816246241331
0	5758	0.004624222405254841
0	5784	0.004619292914867401
0	5840	0.009939240291714668
0	5924	0.014893529005348682
0	6002	0.0138117466121912
0	6088	0.015193719416856766
0	6276	0.03310694545507431
0	6446	0.029797900468111038
0	6554	0.018814565613865852
0	6654	0.01730612851679325
0	6802	0.025433486327528954
0	6760	-0.007159782573580742
0	6708	-0.008797901682555676
0	6460	-0.041661299765110016
0	6016	-0.07416852563619614
0	5384	-0.10523920506238937
0	4790	-0.09921109676361084
0	4298	-0.08359812200069427
0	3958	-0.059073589742183685
0	3774	-0.03238144516944885
0	3778	0.0007006971864029765
0	3820	0.0074043599888682365
0	3940	0.021355606615543365
0	4060	0.021546822041273117
0	4262	0.03657609224319458
0	4412	0.02736859954893589
0	4568	0.028664877638220787
0	4660	0.017014142125844955
0	4794	0.024934561923146248
0	4928	0.025077667087316513
0	4974	0.008652145974338055
0	5062	0.016633693128824234
0	5156	0.01784900575876236
0	5202	0.008772598579525948
0	5258	0.010728929191827774
0	5246	-0.0023100320249795914
0	5276	0.005806451663374901
0	5328	0.010129869915544987
0	5342	0.0027472167275846004
0	5400	0.011472275480628014
0	5414	0.002792256185784936
0	5410	-0.0008052177727222443
0	5458	0.009750944562256336
0	5482	0.0049170926213264465
0	5508	0.0053626676090061665
0	5494	-0.002897710772231221
0	5536	0.008686539717018604
0	5524	-0.0024691696744412184
0	5530	0.0012242899974808097
0	5576	0.009286925196647644
0	5574	-0.00039894148358143866
0	5598	0.004730804357677698
0	5544	-0.01052139326930046
0	5584	0.0077132717706263065
0	5616	0.00611075758934021
0	5636	0.0037865880876779556
0	5610	-0.004884830676019192
0	5628	0.003359880531206727
0	5618	-0.0018554251873865724
0	5598	-0.003692034864798188
0	5610	0.0022061257623136044
0	5618	0.0014650404918938875
0	5648	0.0054753185249865055
0	5642	-0.0010917957406491041
0	5608	-0.006170374806970358
0	5630	0.003984159789979458
0	5586	-0.007949891500175
0	5598	0.0021641117054969072
0	5628	0.005401512607932091
0	5644	0.0028758703265339136
0	5616	-0.0050254263915121555
0	5610	-0.0010755772236734629
0	5618	0.0014323911163955927
0	5604	-0.0025042931083589792
0	5636	0.0057199373841285706
0	5640	0.0007144472911022604
0	5612	-0.004996787756681442
0	5606	-0.001070256344974041
0	5602	-0.0007131565362215042
0	5574	-0.0049899606965482235
0	5596	0.003920729737728834
0	5586	-0.0017819171771407127
0	5578	-0.001425635302439332
0	5608	0.005345053039491177
0	5650	0.00748200761154294
0	5664	0.002493499079719186
0	5748	0.014958508312702179
0	5692	-0.009964176453649998
0	5618	-0.013161951676011086
0	5528	-0.01600777916610241
0	5478	-0.00889690313488245
0	5436	-0.0074792541563510895
0	5446	0.001782700652256608
0	5398	-0.008567246608436108
0	5414	0.0028599004726856947
0	5456	0.007515926845371723
0	5460	0.0007165462011471391
0	5460	0.0
0	5454	-0.0010765164624899626
0	6172	0.1289573311805725
0	8002	0.32764381170272827
0	8191	0.03336353972554207
1	6286	-0.3312525153160095
1	2952	-0.5774993896484375
0	4848	0.3335229158401489
0	5392	0.09613855183124542
0	5404	0.002123806159943342
0	5498	0.016656920313835144
0	5498	0.0
0	5564	0.011709948070347309
0	5626	0.011000905185937881
0	5642	0.002838439540937543
0	5682	0.007093749940395355
0	5714	0.0056715128012001514
0	5782	0.012044423259794712
0	5782	0.0
0	5834	0.009196865372359753
0	5894	0.010606390424072742
0	5990	0.016950050368905067
0	6084	0.016560666263103485
0	6200	0.020370056852698326
0	6342	0.02483081817626953
0	6470	0.022265128791332245
0	6590	0.02075035683810711
0	6722	0.022669635713100433
0	6752	0.00511389784514904
0	6758	0.0010153028415516019
0	6640	-0.019822493195533752
0	6274	-0.06107974424958229
0	5674	-0.09967605024576187
0	5116	-0.0929550752043724
0	4564	-0.09345319122076035
0	4116	-0.07743095606565475
0	3940	-0.030804414302110672
0	3832	-0.018794376403093338
0	3850	0.0031509664840996265
0	3976	0.02225702814757824
0	4094	0.02102062851190567
0	4234	0.025149399414658546
0	4414	0.032581545412540436
0	4552	0.025153717026114464
0	4696	0.026419755071401596
0	4806	0.020299198105931282
0	4878	0.01335873082280159
0	4992	0.021261252462863922
0	5082	0.016868041828274727
0	5112	0.005647377576678991
0	5172	0.01134615857154131
0	5236	0.012157900258898735
0	5254	0.003435814054682851
0	5310	0.010745948180556297
0	5350	0.007719622924923897
0	5366	0.0031076811719685793
0	5384	0.0035213103983551264
0	5380	-0.0007887161336839199
0	5396	0.003182939486578107
0	5408	0.002408864675089717
0	5438	0.006077056750655174
0	5472	0.006943688262254
0	5520	0.009856668300926685
0	5540	0.004111278802156448
0	5564	0.004919242579489946
0	5556	-0.0016286203172057867
0	5542	-0.0028225048445165157
0	5530	-0.002393521601334214
0	5574	0.008678272366523743
0	5560	-0.0027303220704197884
0	5612	0.010037834756076336
0	5602	-0.0019116803305223584
0	5592	-0.0018951597157865763
0	5614	0.004138553515076637
0	5604	-0.0018687164410948753
0	5634	0.005574619397521019
0	5626	-0.0014789800625294447
0	5638	0.0022082908544689417
0	5626	-0.0021995746064931154
0	5622	-0.0007307626656256616
0	5626	0.0007285001338459551
0	5622	-0.0007264977903105319
0	5618	-0.0007248040055856109
0	5644	0.004700890742242336
0	5632	-0.0021652833092957735
0	5612	-0.0036026949528604746
0	5622	0.0017986905295401812
0	5596	-0.0046699317172169685
0	5614	0.0032288539223372936
0	5558	-0.010032246820628643
0	5642	0.015034902840852737
0	5570	-0.01287139393389225
0	5600	0.0053599500097334385
0	5592	-0.001428639399819076
0	5618	0.0046416413970291615
0	5590	-0.004997085314244032
0	5574	-0.002854899736121297
0	5586	0.0021407674066722393
0	5598	0.002140054712072015
0	5612	0.0024963743053376675
0	5580	-0.005704235285520554
0	5588	0.0014263300690799952
0	5562	-0.004635958466678858
0	5560	-0.00035667576594278216
0	5576	0.002854322548955679
0	5616	0.007136994507163763
0	5604	-0.0021413275972008705
0	5622	0.0032124118879437447
0	5676	0.00963815301656723
0	5740	0.011419598944485188
0	5684	-0.009985140524804592
0	5586	-0.017467975616455078
0	5578	-0.00142626219894737
0	5436	-0.02532217465341091
0	5400	-0.0064276535995304585
0	5436	0.006436540279537439
0	5398	-0.006801259703934193
0	5430	0.005735041107982397
0	5432	0.0003587958635762334
0	5428	-0.0007183736306615174
0	5432	0.0007189331226982176
0	5450	0.003239274490624666
0	5700	0.045022331178188324
0	6944	0.22389671206474304
0	8191	0.22263085842132568
1	6978	-0.21329471468925476
0	2978	-0.6976865530014038
0	4580	0.2837055027484894
0	5406	0.14715401828289032
0	5402	-0.0007134236511774361
0	5436	0.006071681622415781
0	5500	0.011438852176070213
0	5518	0.0032188650220632553
0	5636	0.021106982603669167
0	5590	-0.008224419318139553
0	5644	0.009653947316110134
0	5700	0.010009830817580223
0	5774	0.013219715096056461
0	5846	0.01285079400986433
0	5850	0.0007132116588763893
0	5892	0.007483829278498888
0	5980	0.015661057084798813
0	6050	0.012428609654307365
0	6220	0.03009968437254429
0	6318	0.01727166399359703
0	6458	0.024541454389691353
0	6650	0.03345705196261406
0	6760	0.019029716029763222
0	6788	0.004807059653103352
0	6726	-0.010562240146100521
0	6580	-0.024690384045243263
0	6246	-0.05612030625343323
0	5786	-0.076948381960392
0	5166	-0.10366333276033401
0	4588	-0.09760820865631104
0	4162	-0.07342886179685593
0	3900	-0.045903172343969345
0	3832	-0.011849992908537388
0	3886	0.00945135485380888
0	3938	0.009182737208902836
0	4102	0.02921268343925476
0	4232	0.02334127388894558
0	4412	0.032565824687480927
0	4522	0.020034970715641975
0	4650	0.023472169414162636
0	4746	0.01770586147904396
0	4820	0.013724035583436489
0	4950	0.024241670966148376
0	5030	0.014994751662015915
0	5098	0.012810851447284222
0	5182	0.015900257974863052
0	5202	0.0038028114940971136
0	5274	0.013757961802184582
0	5280	0.0011521916603669524
0	5346	0.012750830501317978
0	5312	-0.006609984673559666
0	5372	0.01175195537507534
0	5392	0.003950279206037521
0	5394	0.0003986181109212339
0	5430	0.007242197636514902
0	5460	0.006088074296712875
0	5460	0.0
0	5478	0.00370055646635592
0	5498	0.004120426252484322
0	5490	-0.0016444213688373566
0	5536	0.009397344663739204
0	5570	0.00688147684559226
0	5556	-0.0028019798919558525
0	5608	0.010289016179740429
0	5554	-0.010564757511019707
0	5594	0.007744133472442627
0	5638	0.008437308482825756
0	5612	-0.004941274877637625
0	5592	-0.0037723039276897907
0	5606	0.0026229671202600002
0	5592	-0.0026074000634253025
0	5624	0.005928634200245142
0	5634	0.0018435444217175245
0	5608	-0.004773152992129326
0	5642	0.00621981592848897
0	5612	-0.005469927564263344
0	5628	0.0029096903745085
0	5640	0.0021766468416899443
0	5658	0.0032577612437307835
0	5598	-0.010834497399628162
0	5610	0.0021636176388710737
0	5610	0.0
0	5580	-0.005391675513237715
0	5588	0.00143616262357682
0	5630	0.007531110662966967
0	5606	-0.0042983535677194595
0	5618	0.0021473050583153963
0	5586	-0.00572075555101037
0	5600	0.0025012209080159664
0	5650	0.008927509188652039
0	5598	-0.009275776334106922
0	5620	0.00392292020842433
0	5572	-0.008556555956602097
0	5580	0.0014259571908041835
0	5590	0.001782743027433753
0	5554	-0.0064165024086833
0	5594	0.007131141610443592
0	5590	-0.000713300658389926
0	5568	-0.003923666663467884
0	5560	-0.0014269915409386158
0	5560	0.0
0	5558	-0.0003569133987184614
0	5594	0.00642696488648653
0	5564	-0.005357078742235899
0	5672	0.019290536642074585
0	5718	0.00821487233042717
0	5710	-0.0014277725713327527
0	5674	-0.00642184354364872
0	5564	-0.019618334248661995
0	5540	-0.004282757174223661
0	5470	-0.012495686300098896
0	5410	-0.010719518177211285
0	5390	-0.0035774335265159607
0	5418	0.005014087073504925
0	5434	0.0028681030962616205
0	5446	0.002153599401935935
0	5468	0.0039520482532680035
0	5496	0.005034401547163725
0	5566	0.012592797167599201
0	6650	0.19504821300506592
0	8191	0.2756248414516449
0	7678	-0.09035879373550415
1	4574	-0.5402050018310547
0	3892	-0.11938312649726868
0	5310	0.25068801641464233
0	5404	0.016645710915327072
0	5396	-0.001417911727912724
0	5466	0.01242125779390335
0	5522	0.009944300167262554
0	5572	0.00888125691562891
0	5600	0.004973150789737701
0	5666	0.011719651520252228
0	5694	0.004968797322362661
0	5732	0.006739381235092878
0	5792	0.01063056942075491
0	5828	0.006373824551701546
0	5886	0.010262277908623219
0	5924	0.006716589443385601
0	6040	0.020473117008805275
0	6112	0.01267196610569954
0	6236	0.021750951185822487
0	6380	0.025146543979644775
0	6520	0.0243107620626688
0	6682	0.027948223054409027
0	6786	0.017812591046094894
0	6808	0.0037391860969364643
0	6818	0.0016866156365722418
0	6604	-0.03582169488072395
0	6276	-0.05456693097949028
0	5514	-0.12627112865447998
0	4794	-0.12006470561027527
0	4322	-0.08022390305995941
0	4000	-0.055789779871702194
0	3844	-0.027118487283587456
0	3794	-0.0086942408233881
0	3812	0.0031576731707900763
0	3892	0.014165977947413921
0	4026	0.023940540850162506
0	4202	0.03171628341078758
0	4358	0.028336843475699425
0	4534	0.03220651298761368
0	4656	0.022471081465482712
0	4774	0.021869942545890808
0	4882	0.020130975171923637
0	4994	0.020987408235669136
0	5050	0.010546272620558739
0	5132	0.015518546104431152
0	5206	0.01407147292047739
0	5246	0.007640976458787918
0	5280	0.006527832709252834
0	5272	-0.001544182887300849
0	5332	0.011653653346002102
0	5378	0.00899550225585699
0	5398	0.003940420690923929
0	5404	0.00119217939209193
0	5424	0.004010641481727362
0	5448	0.004857709631323814
0	5448	0.0
0	5496	0.009883864782750607
0	5480	-0.003312355140224099
0	5526	0.009525256231427193
0	5528	0.000412059627706185
0	5540	0.0024520487058907747
0	5566	0.005257623270153999
0	5606	0.007995842024683952
0	5592	-0.0027651588898152113
0	5588	-0.0007808940717950463
0	5614	0.005020403303205967
0	5630	0.0030582209583371878
0	5638	0.0015153237618505955
0	5618	-0.0037579385098069906
0	5580	-0.007091933395713568
0	5592	0.0022267582826316357
0	5646	0.009969967417418957
0	5610	-0.006615539081394672
0	5618	0.001464593457058072
0	5612	-0.0010946507100015879
0	5608	-0.0007276431424543262
0	5594	-0.002540558110922575
0	5590	-0.0007243489380925894
0	5602	0.0021689883433282375
0	5610	0.0014431229792535305
0	5614	0.0007203573477454484
0	5600	-0.0025176838971674442
0	5610	0.0017961706034839153
0	5626	0.00287033268250525
0	5602	-0.004300304688513279
0	5598	-0.0007160588284023106
0	5630	0.0057233478873968124
0	5596	-0.006076202727854252
0	5594	-0.0003571768756955862
0	5630	0.006426582112908363
0	5684	0.009634026326239109
0	5688	0.0007130209705792367
0	5758	0.01246882788836956
0	5746	-0.002135585993528366
0	5612	-0.02382561005651951
0	5604	-0.00142222223803401
0	5448	-0.02773497812449932
0	5416	-0.005695368628948927
0	5428	0.002138579962775111
0	5444	0.0028546620160341263
0	5474	0.005356824025511742
0	5426	-0.00857694260776043
0	5470	0.007872512564063072
0	5486	0.002865124261006713
0	5486	0.0
0	5804	0.05703217536211014
0	7504	0.30453214049339294
0	8191	0.12167906761169434
1	7010	-0.2060111165046692
0	2932	-0.7055810689926147
0	4276	0.23618865013122559
0	5308	0.1827918291091919
0	5406	0.01738811656832695
0	5476	0.012435086071491241
0	5502	0.0046228524297475815
0	5546	0.00782792828977108
0	5618	0.012813287787139416
0	5652	0.0060511501505970955
0	5650	-0.00035583178396336734
0	5696	0.008181413635611534
0	5734	0.006755915470421314
0	5762	0.00497656874358654
0	5850	0.01563378982245922
0	5908	0.010298478417098522
0	6022	0.02022244781255722
0	6062	0.007078434806317091
0	6246	0.03247307240962982
0	6332	0.015106712467968464
0	6492	0.027955573052167892
0	6638	0.02535235695540905
0	6724	0.01483108103275299
0	6774	0.008561204187572002
0	6746	-0.004757670219987631
0	6622	-0.020918501541018486
0	6222	-0.06705071777105331
0	5734	-0.08146685361862183
0	5018	-0.11957580596208572
0	4456	-0.09517411887645721
0	4108	-0.06020275130867958
0	3894	-0.03765130788087845
0	3872	-0.0038489801809191704
0	3888	0.002805868862196803
0	3972	0.014854111708700657
0	4138	0.029604792594909668
0	4302	0.029482616111636162
0	4464	0.02933400869369507
0	4582	0.021507205441594124
0	4734	0.027879677712917328
0	4816	0.015125244855880737
0	4918	0.018911302089691162
0	4992	0.013786251656711102
0	5082	0.016844680532813072
0	5162	0.015036839991807938
0	5212	0.0094387112185359
0	5244	0.006067347712814808
0	5300	0.01067032478749752
0	5320	0.0038293637335300446
0	5358	0.007319046650081873
0	5356	-0.0003876369446516037
0	5358	0.000390502973459661
0	5400	0.008269453421235085
0	5406	0.001191705814562738
0	5448	0.008418182842433453
0	5474	0.0052568442188203335
0	5468	-0.0012225769460201263
0	5512	0.009011715650558472
0	5514	0.0004102451785001904
0	5534	0.004088586196303368
0	5522	-0.0024352625478059053
0	5550	0.005628442391753197
0	5550	0.0
0	5566	0.0031459731981158257
0	5584	0.0035007197875529528
0	5584	0.0
0	5608	0.004576891660690308
0	5606	-0.0003782672865781933
0	5590	-0.0030045066960155964
0	5610	0.003732086159288883
0	5618	0.0014847442507743835
0	5634	0.0029548280872404575
0	5602	-0.00588372303172946
0	5638	0.006594533566385508
0	5626	-0.0021907405462116003
0	5608	-0.003276858013123274
0	5654	0.008354118093848228
0	5580	-0.013405959121882915
0	5594	0.0025319813285022974
0	5622	0.005055611953139305
0	5598	-0.004326506983488798
0	5600	0.00036001871922053397
0	5638	0.006830437108874321
0	5594	-0.007897665724158287
0	5628	0.006095884833484888
0	5604	-0.0042983535677194595
0	5634	0.005368775222450495
0	5602	-0.005721028428524733
0	5584	-0.003216353477910161
0	5600	0.0028577891644090414
0	5600	0.0
0	5638	0.006781435571610928
0	5598	-0.007134618237614632
0	5588	-0.0017831455916166306
0	5598	0.0017829126445576549
0	5566	-0.005704845767468214
0	5566	0.0
0	5580	0.002496760105714202
0	5620	0.007134703453630209
0	5592	-0.00499340146780014
0	5682	0.016051936894655228
0	5776	0.016758980229496956
0	5668	-0.01923876255750656
0	5560	-0.019231226295232773
0	5534	-0.004631883930414915
0	5426	-0.019250649958848953
0	5430	0.0007137588690966368
0	5420	-0.0017867778660729527
0	5456	0.006438535638153553
0	5414	-0.007517809979617596
0	5398	-0.0028674863278865814
0	5434	0.006459562107920647
0	5432	-0.00035922121605835855
0	5508	0.01366726215928793
0	5728	0.03958353400230408
0	7148	0.255340576171875
0	8191	0.18582966923713684
0	7602	-0.10337141901254654
1	4832	-0.4805217981338501
1	3574	-0.2191828489303589
0	5326	0.3088875710964203
0	5382	0.009889042004942894
0	5430	0.008489115163683891
0	5492	0.010975976474583149
0	5554	0.010982198640704155
0	5558	0.0007087130798026919
0	5586	0.0049612256698310375
0	5664	0.013818925246596336
0	5686	0.0038957130163908005
0	5762	0.013452677056193352
0	5758	-0.0007073261076584458
0	5842	0.014847197569906712
0	5918	0.013427956961095333
0	5972	0.009526889771223068
0	6058	0.015135781839489937
0	6164	0.018598558381199837
0	6310	0.02550678700208664
0	6442	0.02294335514307022
0	6560	0.020389238372445107
0	6664	0.01785663142800331
0	6784	0.020457450300455093
0	6794	0.0016914654988795519
0	6620	-0.029207535088062286
0	6290	-0.05502782016992569
0	5814	-0.07902994751930237
0	5212	-0.09990209341049194
0	4648	-0.09460917860269547
0	4162	-0.08317265659570694
0	3964	-0.034563418477773666
0	3866	-0.0171939879655838
0	3850	-0.0028023961931467056
0	3924	0.013073742389678955
0	4036	0.019958656281232834
0	4186	0.026953531429171562
0	4378	0.03477253019809723
0	4518	0.02553626149892807
0	4664	0.026800137013196945
0	4712	0.008860993199050426
0	4894	0.03379591181874275
0	4928	0.006344625260680914
0	5016	0.016507014632225037
0	5182	0.03128337115049362
0	5190	0.0015139089664444327
0	5280	0.017110047861933708
0	5300	0.0038189804181456566
0	5290	-0.0019187474390491843
0	5382	0.017751706764101982
0	5330	-0.010093821212649345
0	5418	0.017205646261572838
0	5444	0.005121605470776558
0	5446	0.0003971511032432318
0	5448	0.00040069990791380405
0	5412	-0.007278020493686199
0	5454	0.00856071338057518
0	5492	0.007789652328938246
0	5516	0.004930628929287195
0	5526	0.002050160663202405
0	5524	-0.0004075865726917982
0	5530	0.001211550086736679
0	5526	-0.0007992753526195884
0	5566	0.007905346341431141
0	5568	0.00039084890158846974
0	5588	0.003867075778543949
0	5596	0.0015315108466893435
0	5596	0.0
0	5626	0.005648440681397915
0	5610	-0.002991697983816266
0	5596	-0.0026023918762803078
0	5626	0.005546174943447113
0	5604	-0.004048930946737528
0	5592	-0.002199386479333043
0	5620	0.005113906227052212
0	5640	0.00364307570271194
0	5570	-0.012716020457446575
0	5620	0.009066950529813766
0	5618	-0.000361977843567729
0	5632	0.002528840908780694
0	5618	-0.0025250399485230446
0	5620	0.00036009648465551436
0	5586	-0.0061142281629145145
0	5636	0.00898386538028717
0	5576	-0.010768383741378784
0	5622	0.008249443955719471
0	5656	0.00608977023512125
0	5622	-0.006082434672862291
0	5644	0.003932644613087177
0	5614	-0.005358609836548567
0	5642	0.004998750519007444
0	5640	-0.00035680303699336946
0	5708	0.012123373337090015
0	5766	0.010329351760447025
0	5660	-0.018855394795536995
0	5590	-0.012444887310266495
0	5510	-0.01422255951911211
0	5508	-0.00035574528737924993
0	5454	-0.009610136970877647
0	5418	-0.006413301452994347
0	5450	0.005707219708710909
0	5454	0.0007140222005546093
0	5476	0.003931145183742046
0	5466	-0.0017882476095110178
0	5492	0.004652938339859247
0	5566	0.013253098353743553
0	6404	0.15014871954917908
0	8191	0.3185989260673523
1	7318	-0.15330223739147186
1	3426	-0.6767165660858154
0	4272	0.14900225400924683
0	5302	0.1828543096780777
0	5432	0.023122210055589676
0	5460	0.004984719678759575
0	5504	0.00784132070839405
0	5580	0.013549894094467163
0	5618	0.006776638329029083
0	5650	0.00570793217048049
0	5634	-0.002853491110727191
0	5732	0.017478670924901962
0	5752	0.003564575221389532
0	5788	0.006412045564502478
0	5822	0.006050503812730312
0	5908	0.015293873846530914
0	5982	0.013148777186870575
0	6024	0.00744861364364624
0	6174	0.02653411403298378
0	6288	0.02008727937936783
0	6424	0.023854486644268036
0	6552	0.02232467196881771
0	6704	0.0263369157910347
0	6798	0.016170188784599304
0	6770	-0.004779815208166838
0	6784	0.002372439019382
0	6496	-0.04844380170106888
0	6070	-0.07125533372163773
0	5518	-0.09207212924957275
0	4886	-0.10593777149915695
0	4338	-0.09358562529087067
0	3946	-0.06809969246387482
0	3822	-0.021477067843079567
0	3778	-0.007640745956450701
0	3882	0.018220681697130203
0	4030	0.026166286319494247
0	4202	0.030667917802929878
0	4372	0.030547700822353363
0	4488	0.02099623531103134
0	4634	0.026607699692249298
0	4744	0.0201713964343071
0	4888	0.02655063010752201
0	4956	0.012603173032402992
0	5078	0.022723322734236717
0	5114	0.006734930444508791
0	5190	0.014281240291893482
0	5248	0.010948078706860542
0	5282	0.006447616498917341
0	5356	0.014099176973104477
0	5322	-0.0065118297934532166
0	5356	0.006552237551659346
0	5378	0.0042689708061516285
0	5372	-0.0011731734266504645
0	5448	0.014990336261689663
0	5418	-0.0059702289290726185
0	5440	0.004417788702994585
0	5494	0.010942100547254086
0	5500	0.0012240734649822116
0	5518	0.003686510259285569
0	5540	0.004505734890699387
0	5530	-0.0020389575511217117
0	5534	0.0008090287446975708
0	5570	0.007204130291938782
0	5566	-0.0007912331493571401
0	5570	0.0007820136961527169
0	5602	0.00618803920224309
0	5568	-0.006508838385343552
0	5618	0.009489106014370918
0	5590	-0.005272341426461935
0	5632	0.007854185998439789
0	5588	-0.008177324198186398
0	5610	0.004067395348101854
0	5614	0.0007362505421042442
0	5618	0.0007332901586778462
0	5640	0.00401983130723238
0	5634	-0.0010928165866062045
0	5620	-0.0025430500973016024
0	5606	-0.0025373350363224745
0	5612	0.0010853050043806434
0	5658	0.008307848125696182
0	5616	-0.007570113521069288
0	5684	0.012237259186804295
0	5718	0.0061074187979102135
0	5788	0.012548101134598255
0	5742	-0.008229176513850689
0	5670	-0.01285561267286539
0	5574	-0.01711738482117653
0	5546	-0.004990197718143463
0	5492	-0.009621324017643929
0	5468	-0.004276804625988007
0	5454	-0.002495869994163513
0	5444	-0.001783569692634046
0	5462	0.0032121441327035427
0	5460	-0.0003571343549992889
0	5504	0.007861915975809097
0	5512	0.0014300014590844512
0	5836	0.057946134358644485
0	7316	0.26426997780799866
0	8191	0.15467745065689087
1	6954	-0.21536889672279358
0	2972	-0.6880107522010803
0	4318	0.23611964285373688
0	5342	0.18100081384181976
0	5436	0.016641978174448013
0	5520	0.014887546189129353
0	5544	0.004256602376699448
0	5552	0.0014196228003129363
0	5630	0.013846891932189465
0	5676	0.00816495530307293
0	5660	-0.00283890962600708
0	5678	0.003193735610693693
0	5734	0.009932423941791058
0	5850	0.020568227395415306
0	5862	0.0021260888315737247
0	5958	0.017001280561089516
0	5988	0.005306134466081858
0	6056	0.01200473215430975
0	6214	0.027814453467726707
0	6382	0.029459385201334953
0	6486	0.01814238354563713
0	6694	0.03607124090194702
0	6758	0.011019852943718433
0	6800	0.007177646737545729
0	6748	-0.008819389156997204
0	6546	-0.03401226922869682
0	6094	-0.07566415518522263
0	5550	-0.09077004343271255
0	4960	-0.0986023023724556
0	4480	-0.08128567039966583
0	4050	-0.07437644898891449
0	3922	-0.022516975179314613
0	3868	-0.009446725249290466
0	3958	0.01578596606850624
0	4054	0.016975726932287216
0	4222	0.02995150536298752
0	4372	0.026950305327773094
0	4530	0.028588315472006798
0	4686	0.028401505202054977
0	4760	0.013550135307013988
0	4854	0.01730910874903202
0	4992	0.025537585839629173
0	5044	0.009663751348853111
0	5106	0.011571626178920269
0	5178	0.013500506058335304
0	5270	0.01732471212744713
0	5262	-0.001513030962087214
0	5330	0.01291989628225565
0	5374	0.008398549631237984
0	5398	0.004605642054229975
0	5376	-0.004248580429702997
0	5398	0.004279156681150198
0	5438	0.00784621387720108
0	5444	0.0011871784226968884
0	5458	0.002795080654323101
0	5494	0.007249587681144476
0	5534	0.00811238307505846
0	5524	-0.0020358029287308455
0	5560	0.007330183871090412
0	5506	-0.010950680822134018
0	5552	0.009264107793569565
0	5550	-0.0003987664822489023
0	5562	0.002366988454014063
0	5580	0.003511372720822692
0	5608	0.005405127070844173
0	5624	0.0030580649618059397
0	5588	-0.006819732021540403
0	5596	0.0015039477730169892
0	5602	0.0011204760521650314
0	5636	0.006313365884125233
0	5614	-0.004063088446855545
0	5642	0.00514712231233716
0	5592	-0.009154826402664185
0	5644	0.00948928203433752
0	5624	-0.0036378188524395227
0	5636	0.0021768049336969852
0	5640	0.0007239993428811431
0	5630	-0.0018058798741549253
0	5588	-0.007571023423224688
0	5626	0.006841176655143499
0	5636	0.0017978496616706252
0	5616	-0.003590105567127466
0	5608	-0.0014341715723276138
0	5618	0.001790895126760006
0	5596	-0.003935880959033966
0	5640	0.007865289226174355
0	5622	-0.0032148214522749186
0	5676	0.009639414958655834
0	5686	0.0017834636382758617
0	5712	0.004633535165339708
0	5752	0.007119802758097649
0	5728	-0.004266818519681692
0	5632	-0.017049288377165794
0	5550	-0.014556901529431343
0	5496	-0.009587954729795456
0	5444	-0.009238969534635544
0	5418	-0.004624414257705212
0	5448	0.005341246258467436
0	5438	-0.0017819806234911084
0	5440	0.00035674363607540727
0	5464	0.004285918548703194
0	5468	0.0007149581215344369
0	5460	-0.0014314001891762018
0	5814	0.0633893609046936
0	7694	0.33630281686782837
0	8191	0.0878215953707695
1	6230	-0.3413779139518738
0	3250	-0.5169991254806519
0	4862	0.2835681736469269
0	5362	0.08833141624927521
0	5392	0.005308137275278568
0	5410	0.003189472248777747
0	5502	0.016321606934070587
0	5536	0.006035681813955307
0	5554	0.003196912119165063
0	5628	0.013146129436790943
0	5674	0.008172499015927315
0	5700	0.004617816302925348
0	5748	0.008523988537490368
0	5788	0.007100717630237341
0	5844	0.00993653666228056
0	5884	0.0070936656557023525
0	5996	0.019843965768814087
0	6050	0.009547102265059948
0	6212	0.028557157143950462
0	6348	0.02387346886098385
0	6500	0.02654171735048294
0	6688	0.03262246400117874
0	6778	0.015505923889577389
0	6806	0.0047872248105704784
0	6796	-0.0016965159447863698
0	6606	-0.03199281543493271
0	6256	-0.0585600920021534
0	5676	-0.09661353379487991
0	5036	-0.10668978095054626
0	4510	-0.08900018781423569
0	4126	-0.0663510411977768
0	3890	-0.04127846658229828
0	3798	-0.016031784936785698
0	3892	0.016482166945934296
0	3962	0.012380323372781277
0	4126	0.029251934960484505
0	4296	0.03055538982152939
0	4416	0.0217254851013422
0	4590	0.031716328114271164
0	4712	0.0223689042031765
0	4836	0.02286360412836075
0	4918	0.015197756700217724
0	5028	0.02048620581626892
0	5074	0.00860542245209217
0	5084	0.0018791105831041932
0	5152	0.01283907052129507
0	5200	0.009104819968342781
0	5252	0.009913448244333267
0	5266	0.0026826090179383755
0	5310	0.008482309058308601
0	5364	0.010480010882019997
0	5374	0.001955110812559724
0	5390	0.0031551963184028864
0	5442	0.010348808020353317
0	5428	-0.002811659127473831
0	5432	0.000810756057035178
0	5490	0.011849955655634403
0	5540	0.010269048623740673
0	5544	0.0008222894975915551
0	5530	-0.0028680297546088696
0	5578	0.009765228256583214
0	5534	-0.008864177390933037
0	5586	0.010361455380916595
0	5590	0.0007876806193962693
0	5544	-0.008958479389548302
0	5584	0.007710793986916542
0	5564	-0.003819612553343177
0	5584	0.00378902698867023
0	5602	0.003385155461728573
0	5640	0.007101387716829777
0	5594	-0.008547008968889713
0	5600	0.0011096178786829114
0	5664	0.011786372400820255
0	5632	-0.005870266817510128
0	5646	0.0025595086626708508
0	5668	0.00400835694745183
0	5596	-0.01307727675884962
0	5614	0.0032615000382065773
0	5638	0.004339179024100304
0	5658	0.0036078940611332655
0	5616	-0.007560756057500839
0	5612	-0.0007189848111011088
0	5616	0.0007179609965533018
0	5640	0.004301948938518763
0	5596	-0.007877587340772152
0	5600	0.0007154269842430949
0	5622	0.003930911421775818
0	5664	0.007498571183532476
0	5642	-0.003924926742911339
0	5682	0.007132073864340782
0	5638	-0.007838200777769089
0	5772	0.023862382397055626
0	5770	-0.00035565250436775386
0	5724	-0.00817109551280737
0	5600	-0.022008968517184258
0	5526	-0.013130035251379013
0	5478	-0.008519701659679413
0	5460	-0.0031965146772563457
0	5452	-0.0014217167627066374
0	5446	-0.0010672358330339193
0	5390	-0.009972338564693928
0	5466	0.013550296425819397
0	5480	0.002498096786439419
0	5496	0.00285809556953609
0	5504	0.0014302058843895793
0	6056	0.09876778721809387
0	8191	0.3811275064945221
0	8191	0.0
1	5504	-0.4653458297252655
0	3544	-0.3397037386894226
0	5020	0.2589806914329529
0	5398	0.06655632704496384
0	5414	0.0028207418508827686
0	5474	0.010590353980660439
0	5548	0.013074205256998539
0	5562	0.0024741976521909237
0	5650	0.015555582009255886
0	5612	-0.006716074887663126
0	5674	0.01096116378903389
0	5750	0.013433733023703098
0	5760	0.0017668885411694646
0	5806	0.008121850900352001
0	5860	0.009532439522445202
0	5950	0.015878990292549133
0	6028	0.013743525370955467
0	6172	0.025309041142463684
0	6268	0.016809076070785522
0	6352	0.014640438370406628
0	6538	0.03225098177790642
0	6682	0.02481275424361229
0	6760	0.013345500454306602
0	6830	0.011883877217769623
0	6806	-0.004043262917548418
0	6544	-0.04381271079182625
0	6142	-0.06683366000652313
0	5412	-0.12093701213598251
0	4806	-0.10075259208679199
0	4260	-0.0925125852227211
0	3960	-0.05198526009917259
0	3828	-0.023079345002770424
0	3788	-0.006982183549553156
0	3874	0.015120082534849644
0	3990	0.02057832106947899
0	4106	0.020753074437379837
0	4260	0.02777811326086521
0	4486	0.0410834401845932
0	4626	0.02561694197356701
0	4706	0.01473025232553482
0	4814	0.019997037947177887
0	4922	0.02010374516248703
0	4998	0.01422013808041811
0	5056	0.010904031805694103
0	5130	0.013977736234664917
0	5198	0.012903716415166855
0	5278	0.015253396704792976
0	5324	0.008812710642814636
0	5310	-0.0026967329904437065
0	5352	0.00814027152955532
0	5388	0.007022745441645384
0	5388	0.0
0	5402	0.0027751715388149023
0	5400	-0.00040004265611059964
0	5452	0.010501231998205185
0	5472	0.004076086916029453
0	5462	-0.00205299467779696
0	5504	0.008662889711558819
0	5512	0.0016490311827510595
0	5550	0.007795084733515978
0	5566	0.003253443166613579
0	5570	0.0008046023431234062
0	5570	0.0
0	5564	-0.0011790444841608405
0	5536	-0.005441965069621801
0	5608	0.01385485753417015
0	5608	0.0
0	5624	0.00302358390763402
0	5580	-0.008255676366388798
0	5592	0.002238193526864052
0	5650	0.010758671909570694
0	5616	-0.006274374667555094
0	5602	-0.0025725835002958775
0	5584	-0.0032954157795757055
0	5610	0.004744756501168013
0	5618	0.001455674646422267
0	5640	0.00399293377995491
0	5624	-0.002897605998441577
0	5594	-0.005423189606517553
0	5652	0.010466921143233776
0	5616	-0.006485006306320429
0	5644	0.005036998074501753
0	5658	0.002514638938009739
0	5684	0.004662896506488323
0	5740	0.01002614013850689
0	5812	0.012868632562458515
0	5786	-0.004637612029910088
0	5682	-0.018514782190322876
0	5578	-0.018495244905352592
0	5568	-0.0017776935128495097
0	5506	-0.011020524427294731
0	5484	-0.0039118994027376175
0	5452	-0.005692937411367893
0	5468	0.0028484617359936237
0	5524	0.00997529923915863
0	5472	-0.009263438172638416
0	5548	0.013549814000725746
0	5550	0.0003567012317944318
0	5654	0.01855662651360035
0	6452	0.1423237919807434
0	8191	0.30857405066490173
1	7058	-0.19806654751300812
1	3344	-0.643856406211853
0	4388	0.1833798736333847
0	5366	0.1729983389377594
0	5466	0.017714478075504303
0	5490	0.004255293868482113
0	5554	0.011357519775629044
0	5608	0.009586876258254051
0	5634	0.004615521524101496
0	5686	0.00923202559351921
0	5750	0.011357787996530533
0	5758	0.0014188338536769152
0	5768	0.0017724944045767188
0	5850	0.014527243562042713
0	5866	0.002832744037732482
0	5942	0.013451248407363892
0	6030	0.015560807660222054
0	6068	0.006705685053020716
0	6212	0.025337986648082733
0	6368	0.027346191927790642
0	6484	0.020232440903782845
0	6676	0.03329460322856903
0	6718	0.007232027594000101
0	6814	0.01641259528696537
0	6736	-0.013237915001809597
0	6580	-0.026287853717803955
0	6172	-0.06835658848285675
0	5584	-0.09817289561033249
0	4992	-0.09887925535440445
0	4398	-0.10002638399600983
0	4048	-0.06022023409605026
0	3894	-0.026962358504533768
0	3844	-0.00872600357979536
0	3890	0.008053408935666084
0	3960	0.01236166711896658
0	4124	0.029220663011074066
0	4256	0.023711439222097397
0	4378	0.02208677865564823
0	4548	0.031006811186671257
0	4672	0.02276705391705036
0	4828	0.02882128395140171
0	4908	0.014864547178149223
0	4990	0.01531679555773735
0	5060	0.013138960115611553
0	5152	0.017354123294353485
0	5214	0.011747912503778934
0	5248	0.006472163368016481
0	5322	0.01415671780705452
0	5266	-0.010764400474727154
0	5338	0.01392434537410736
0	5388	0.009734317660331726
0	5378	-0.0019608100410550833
0	5408	0.005932762287557125
0	5454	0.009176141582429409
0	5444	-0.0020130176562815905
0	5490	0.009340859949588776
0	5486	-0.0008182859746739268
0	5478	-0.001644263626076281
0	5548	0.014397761784493923
0	5522	-0.005327432416379452
0	5536	0.0028467627707868814
0	5552	0.0032209577038884163
0	5570	0.003583705984055996
0	5594	0.004724161699414253
0	5560	-0.0066185626201331615
0	5594	0.006550555117428303
0	5586	-0.0015268924180418253
0	5594	0.0015140809118747711
0	5598	0.0007512771990150213
0	5618	0.0037318537943065166
0	5600	-0.0033390221651643515
0	5584	-0.002953918883576989
0	5652	0.01250214409083128
0	5628	-0.0043946923688054085
0	5640	0.0021897542756050825
0	5640	0.0
0	5646	0.0010888238903135061
0	5624	-0.0039827656000852585
0	5634	0.0018070547375828028
0	5634	0.0
0	5582	-0.009359251707792282
0	5630	0.008629265241324902
0	5640	0.001795052783563733
0	5606	-0.0060947188176214695
0	5668	0.011103815399110317
0	5622	-0.008227312006056309
0	5664	0.0075059873051941395
0	5692	0.004998690914362669
0	5792	0.017829760909080505
0	5722	-0.01246276032179594
0	5614	-0.01920546405017376
0	5556	-0.010309278033673763
0	5492	-0.01137548591941595
0	5470	-0.003912131302058697
0	5448	-0.003915008623152971
0	5474	0.00462990440428257
0	5468	-0.0010692011564970016
0	5474	0.001069950987584889
0	5472	-0.0003569049295037985
0	5504	0.005714762024581432
0	5498	-0.0010722455335780978
0	5770	0.04863801598548889
0	7068	0.23184643685817719
0	8191	0.19891126453876495
1	6010	-0.3805508017539978
1	3056	-0.5143205523490906
0	4974	0.3390269875526428
0	5380	0.07205011695623398
0	5378	-0.0003554396971594542
0	5454	0.013527223840355873
0	5484	0.005345402285456657
0	5570	0.015332410112023354
0	5630	0.010700846090912819
0	5584	-0.008204469457268715
0	5652	0.012129932641983032
0	5722	0.012487884610891342
0	5788	0.011767293326556683
0	5796	0.001425288151949644
0	5842	0.008190348744392395
0	5910	0.012103879824280739
0	5978	0.012090394273400307
0	6040	0.010999863967299461
0	6128	0.015568148344755173
0	6340	0.03736494854092598
0	6452	0.01963959075510502
0	6578	0.0219656340777874
0	6736	0.02736862748861313
0	6792	0.009629770182073116
0	6810	0.0030720741488039494
0	6646	-0.027778560295701027
0	6366	-0.04712297394871712
0	5814	-0.09244940429925919
0	5224	-0.09878941625356674
0	4648	-0.0974481850862503
0	4174	-0.08182665705680847
0	3952	-0.038733091205358505
0	3892	-0.01041413564234972
0	3890	-0.000349324633134529
0	3998	0.01902860216796398
0	4106	0.019184084609150887
0	4250	0.025784578174352646
0	4382	0.02381124161183834
0	4506	0.02252906933426857
0	4618	0.020488305017352104
0	4766	0.02723425067961216
0	4874	0.019982239231467247
0	4940	0.012275568209588528
0	5034	0.017575787380337715
0	5128	0.017659656703472137
0	5170	0.00792592391371727
0	5228	0.010996511206030846
0	5256	0.005333942826837301
0	5306	0.00957255344837904
0	5306	0.0
0	5352	0.008912310935556889
0	5396	0.008585812523961067
0	5408	0.0023597271647304296
0	5406	-0.00039674140862189233
0	5426	0.004004111047834158
0	5448	0.004445582162588835
0	5482	0.006926336791366339
0	5496	0.002869244432076812
0	5498	0.0004107844433747232
0	5486	-0.0024600918404757977
0	5526	0.008153614588081837
0	5538	0.002423817990347743
0	5582	0.008793434128165245
0	5544	-0.00750978197902441
0	5566	0.004300906788557768
0	5582	0.003096294589340687
0	5558	-0.00460063898935914
0	5578	0.0038020885549485683
0	5594	0.0030187920201569796
0	5614	0.0037478450685739517
0	5624	0.0018623360665515065
0	5664	0.007409877143800259
0	5626	-0.007005210965871811
0	5662	0.006608657538890839
0	5634	-0.005120390094816685
0	5642	0.0014584700111299753
0	5648	0.0010907240211963654
0	5660	0.002175910398364067
0	5596	-0.011576586402952671
0	5622	0.004694778937846422
0	5594	-0.00504631781950593
0	5632	0.00683863228186965
0	5628	-0.0007188383606262505
0	5584	-0.007896814495325089
0	5608	0.004302771762013435
0	5618	0.0017908737063407898
0	5590	-0.005009362939745188
0	5610	0.0035758132580667734
0	5606	-0.0007146770949475467
0	5584	-0.003928197547793388
0	5582	-0.0003569006803445518
0	5606	0.004281382076442242
0	5594	-0.002139825839549303
0	5584	-0.0017830608412623405
0	5592	0.0014261096948757768
0	5604	0.0021388342138379812
0	5600	-0.0007128515280783176
0	5592	-0.0014253475237637758
0	5570	-0.003919379785656929
0	5630	0.010690740309655666
0	5592	-0.006770159117877483
0	5620	0.004989486653357744
0	5662	0.0074861859902739525
0	5740	0.013899944722652435
0	5668	-0.012824775651097298
0	5604	-0.011397499591112137
0	5518	-0.015318845398724079
0	5454	-0.011408877559006214
0	5436	-0.003212679410353303
0	5436	0.0
0	5416	-0.003577006980776787
0	5414	-0.0003580806660465896
0	5436	0.003944018855690956
0	5450	0.0025127131957560778
0	5476	0.004670211113989353
0	5536	0.010785935446619987
0	6396	0.15467439591884613
0	8191	0.3212853968143463
0	8191	0.0
1	5390	-0.4863578975200653
0	3734	-0.2878665030002594
0	5140	0.2470538467168808
0	5418	0.048982180655002594
0	5396	-0.0038802986964583397
0	5438	0.0074160401709377766
0	5538	0.017673257738351822
0	5538	0.0
0	5612	0.013088079169392586
0	5618	0.0010610704775899649
0	5690	0.01272924430668354
0	5690	0.0
0	5740	0.008831529878079891
0	5800	0.010590353980660439
0	5840	0.007054507732391357
0	5896	0.009870507754385471
0	6010	0.020066652446985245
0	6086	0.013345976360142231
0	6270	0.032204240560531616
0	6404	0.023341964930295944
0	6552	0.02563658356666565
0	6690	0.023751333355903625
0	6782	0.015719329938292503
0	6802	0.003390826750546694
0	6692	-0.01850667968392372
0	6434	-0.0431063286960125
0	5924	-0.0847579687833786
0	5344	-0.09618467092514038
0	4824	-0.0867389515042305
0	4306	-0.08805380761623383
0	4062	-0.04241069033741951
0	3888	-0.03047819249331951
0	3876	-0.0021000560373067856
0	3948	0.012693935073912144
0	4048	0.017784101888537407
0	4224	0.03155215084552765
0	4382	0.02853221632540226
0	4478	0.0174575075507164
0	4654	0.032212406396865845
0	4690	0.006627637427300215
0	4866	0.032587360590696335
0	4938	0.0133993374183774
0	4986	0.008974757976830006
0	5018	0.006011421326547861
0	5108	0.01699032261967659
0	5172	0.01213791687041521
0	5248	0.014480051584541798
0	5266	0.0034461631439626217
0	5320	0.010392876341938972
0	5342	0.004260098095983267
0	5380	0.007409140933305025
0	5326	-0.010609593242406845
0	5402	0.015066610649228096
0	5402	0.0
0	5414	0.0024234589654952288
0	5472	0.011815033853054047
0	5446	-0.005331219173967838
0	5514	0.013988891616463661
0	5526	0.002465753583237529
0	5534	0.0016359693836420774
0	5534	0.0
0	5532	-0.00040160102071240544
0	5568	0.007150139659643173
0	5586	0.0035354660358279943
0	5596	0.0019433072302490473
0	5598	0.00038480284274555743
0	5638	0.007628832012414932
0	5666	0.005297879688441753
0	5640	-0.004882873501628637
0	5656	0.0029864117968827486
0	5652	-0.00074214261258021
0	5668	0.002954209689050913
0	5612	-0.010293486528098583
0	5634	0.004028418567031622
0	5624	-0.0018242404330521822
0	5578	-0.008365259505808353
0	5668	0.016326628625392914
0	5632	-0.006514107808470726
0	5612	-0.0036109774373471737
0	5658	0.008290678262710571
0	5598	-0.01079343818128109
0	5640	0.007545542437583208
0	5640	0.0
0	5640	0.0
0	5612	-0.005006675608456135
0	5590	-0.00392917962744832
0	5608	0.0032125264406204224
0	5618	0.0017830184660851955
0	5600	-0.0032074509654194117
0	5574	-0.004630948882550001
0	5584	0.0017807113472372293
0	5600	0.0028482929337769747
0	5582	-0.0032030369620770216
0	5612	0.005337951704859734
0	5596	-0.0028464687056839466
0	5638	0.007471980061382055
0	5658	0.003557241754606366
0	5652	-0.0010670460760593414
0	5784	0.023476962000131607
0	5690	-0.01670418120920658
0	5596	-0.01670081727206707
0	5560	-0.006398180034011602
0	5494	-0.011737506836652756
0	5438	-0.009966067969799042
0	5388	-0.008908633142709732
0	5440	0.009277982637286186
0	5428	-0.002142831450328231
0	5442	0.002503546653315425
0	5456	0.002506385324522853
0	5478	0.003942275419831276
0	5518	0.007175488863140345
0	6134	0.11055541038513184
0	8146	0.36003577709198
0	8191	0.007933896034955978
1	5692	-0.4340877830982208
0	3068	-0.45558980107307434
0	4864	0.3164478838443756
0	5410	0.0966251939535141
0	5388	-0.0038981058169156313
0	5400	0.002128905151039362
0	5518	0.020955797284841537
0	5606	0.015634160488843918
0	5610	0.0007106184493750334
0	5630	0.003552502952516079
0	5652	0.003907336853444576
0	5688	0.006391705013811588
0	5762	0.013134617358446121
0	5812	0.008869284763932228
0	5842	0.005316541064530611
0	5922	0.014172586612403393
0	6004	0.014507027342915535
0	6106	0.018002012744545937
0	6220	0.02005547471344471
0	6364	0.025225836783647537
0	6530	0.028923388570547104
0	6626	0.016616566106677055
0	6734	0.018566591665148735
0	6786	0.008873064070940018
0	6734	-0.008805748075246811
0	6602	-0.022192955017089844
0	6162	-0.0735134407877922
0	5558	-0.10055326670408249
0	4984	-0.09586531668901443
0	4334	-0.11050350219011307
0	3992	-0.05944104492664337
0	3846	-0.025627823546528816
0	3814	-0.005591603461652994
0	3902	0.01547153014689684
0	3982	0.014190435409545898
0	4126	0.02575690671801567
0	4276	0.02703547105193138
0	4460	0.03341282904148102
0	4578	0.021577471867203712
0	4734	0.02870672568678856
0	4802	0.012582340277731419
0	4916	0.02120509371161461
0	5004	0.01644757203757763
0	5034	0.005633731838315725
0	5114	0.015096808783710003
0	5152	0.007203973364084959
0	5224	0.013716375455260277
0	5222	-0.0003829070192296058
0	5288	0.012707621790468693
0	5318	0.005810950417071581
0	5306	-0.0023401849903166294
0	5364	0.011401612311601639
0	5356	-0.0015857494436204433
0	5434	0.015603120438754559
0	5414	-0.004037196282297373
0	5464	0.01018343772739172
0	5494	0.006157635245472193
0	5492	-0.0004123937978874892
0	5506	0.002888066926971078
0	5500	-0.0012333160266280174
0	5548	0.009788327850401402
0	5566	0.0036322057712823153
0	5502	-0.012766806408762932
0	5578	0.01499230694025755
0	5600	0.004292571451514959
0	5602	0.0003861699369736016
0	5584	-0.0034428236540406942
0	5598	0.002655605785548687
0	5604	0.0011299861362203956
0	5636	0.005988024175167084
0	5654	0.0033494187518954277
0	5616	-0.007033823989331722
0	5612	-0.0007372184772975743
0	5620	0.0014689499512314796
0	5648	0.00512295076623559
0	5640	-0.0014589488273486495
0	5610	-0.005454875994473696
0	5614	0.000725619203876704
0	5650	0.006515129469335079
0	5618	-0.0057786074467003345
0	5616	-0.00036051194183528423
0	5612	-0.0007196833612397313
0	5644	0.0057489159516990185
0	5642	-0.0003586886450648308
0	5608	-0.006090134382247925
0	5600	-0.0014313148567453027
0	5610	0.0017876935889944434
0	5618	0.0014291669940575957
0	5648	0.00535535765811801
0	5620	-0.004994113929569721
0	5668	0.008555234409868717
0	5748	0.014248565770685673
0	5740	-0.0014233187539502978
0	5668	-0.012791813351213932
0	5620	-0.008523332886397839
0	5542	-0.013848775997757912
0	5482	-0.010656689293682575
0	5426	-0.009952252730727196
0	5426	0.0
0	5440	0.002493232488632202
0	5438	-0.0003565909864846617
0	5444	0.0010711479699239135
0	5486	0.007505718618631363
0	5474	-0.002146101789548993
0	5590	0.02076372317969799
0	7166	0.28219789266586304
0	8191	0.18187947571277618
1	7008	-0.20675913989543915
0	2996	-0.6955496668815613
0	4434	0.25318536162376404
0	5330	0.15886056423187256
0	5442	0.01989119127392769
0	5442	0.0
0	5538	0.017087221145629883
0	5586	0.008548886515200138
0	5652	0.011756254360079765
0	5570	-0.014601746574044228
0	5690	0.021373484283685684
0	5704	0.002492507454007864
0	5736	0.005695267580449581
0	5814	0.013872667215764523
0	5812	-0.00035540183307603
0	5890	0.013855417259037495
0	5958	0.012068362906575203
0	6026	0.012047694995999336
0	6154	0.02262376807630062
0	6258	0.018315771594643593
0	6420	0.028400957584381104
0	6572	0.026493914425373077
0	6652	0.013851934112608433
0	6756	0.017882423475384712
0	6788	0.005461030174046755
0	6706	-0.013887712731957436
0	6498	-0.034986402839422226
0	6050	-0.07492516189813614
0	5520	-0.08841241151094437
0	4888	-0.1064014881849289
0	4448	-0.0754760131239891
0	4068	-0.06615214794874191
0	3892	-0.03044947423040867
0	3882	-0.0017355085583403707
0	3952	0.012251184321939945
0	4044	0.016242746263742447
0	4194	0.026702428236603737
0	4322	0.022969255223870277
0	4454	0.023867499083280563
0	4604	0.027319418266415596
0	4692	0.016121940687298775
0	4786	0.01732676289975643
0	4888	0.018908031284809113
0	4996	0.020125724375247955
0	5098	0.019104700535535812
0	5158	0.01128838025033474
0	5192	0.006426249630749226
0	5268	0.014434216544032097
0	5314	0.008778626099228859
0	5344	0.005755947902798653
0	5356	0.002315916819497943
0	5366	0.0019432316767051816
0	5368	0.00039170627132989466
0	5450	0.016195718199014664
0	5450	0.0
0	5444	-0.001206046319566667
0	5448	0.0008108874899335206
0	5516	0.01388359535485506
0	5476	-0.00819660909473896
0	5548	0.014758331701159477
0	5528	-0.00408113282173872
0	5542	0.002835959894582629
0	5546	0.000802289170678705
0	5594	0.009522171691060066
0	5570	-0.004707790445536375
0	5578	0.0015528352232649922
0	5580	0.0003843936137855053
0	5586	0.0011430312879383564
0	5578	-0.0015119061572477221
0	5636	0.01088425237685442
0	5602	-0.006339498795568943
0	5610	0.0014832577435299754
0	5582	-0.005165098700672388
0	5600	0.003306311322376132
0	5638	0.006954272743314505
0	5596	-0.007661065086722374
0	5616	0.003638436319306493
0	5610	-0.0010887315729632974
0	5598	-0.0021729683503508568
0	5592	-0.0010846247896552086
0	5616	0.004332025535404682
0	5590	-0.004685698077082634
0	5612	0.00395949324592948
0	5612	0.0
0	5638	0.004668031353503466
0	5630	-0.0014347030082717538
0	5642	0.002149664331227541
0	5604	-0.0067993937991559505
0	5620	0.002861401066184044
0	5642	0.0039310515858232975
0	5586	-0.010000714100897312
0	5618	0.00571272149682045
0	5626	0.0014275347348302603
0	5616	-0.001783569692634046
0	5590	-0.004636674653738737
0	5576	-0.0024963743053376675
0	5648	0.01283864863216877
0	5624	-0.004277820698916912
0	5702	0.013899778947234154
0	5788	0.015314117074012756
0	5658	-0.023128380998969078
0	5604	-0.009603983722627163
0	5474	-0.02312152460217476
0	5460	-0.0024916057009249926
0	5416	-0.007837269455194473
0	5380	-0.0064207748509943485
0	5430	0.008929208852350712
0	5434	0.0007151285535655916
0	5478	0.00787467323243618
0	5474	-0.000716392241884023
0	5460	-0.002509140409529209
0	5546	0.015427669510245323
0	6412	0.15539392828941345
0	8191	0.3177012503147125
0	8191	0.0
1	4622	-0.6184727549552917
1	3752	-0.15164543688297272
0	5354	0.28233715891838074
0	5400	0.008118984289467335
0	5436	0.006362222600728273
0	5522	0.015217109583318233
0	5568	0.008142457343637943
0	5598	0.005311865359544754
0	5614	0.0028334632515907288
0	5652	0.006729554384946823
0	5670	0.0031865176279097795
0	5692	0.003892473643645644
0	5816	0.021933704614639282
0	5830	0.0024735857732594013
0	5862	0.005649650935083628
0	5976	0.020118121057748795
0	6028	0.009159552864730358
0	6158	0.02284201607108116
0	6334	0.030801178887486458
0	6454	0.02089427411556244
0	6620	0.028730658814311028
0	6720	0.01718468964099884
0	6824	0.01774098165333271
0	6772	-0.00880092941224575
0	6668	-0.01747429184615612
0	6444	-0.03738692030310631
0	5994	-0.07469871640205383
0	5152	-0.13942398130893707
0	4618	-0.0890425443649292
0	4142	-0.08097946643829346
0	3900	-0.042137764394283295
0	3804	-0.016786150634288788
0	3874	0.012236193753778934
0	3956	0.014458511024713516
0	4116	0.02845321223139763
0	4216	0.017923502251505852
0	4390	0.031432148069143295
0	4492	0.01855737529695034
0	4612	0.02197963185608387
0	4744	0.024326415732502937
0	4828	0.015567279420793056
0	4980	0.028316648676991463
0	5026	0.008607570081949234
0	5132	0.019933056086301804
0	5180	0.009065954945981503
0	5222	0.007966918870806694
0	5242	0.0038119442760944366
0	5294	0.009960794821381569
0	5324	0.005778491497039795
0	5372	0.009305932559072971
0	5354	-0.003514298237860203
0	5404	0.009843036532402039
0	5444	0.007943022064864635
0	5460	0.0032064984552562237
0	5488	0.005660987924784422
0	5468	-0.004075976554304361
0	5496	0.005744453985244036
0	5510	0.0028820422012358904
0	5552	0.008624938316643238
0	5558	0.0012243065284565091
0	5580	0.004446301143616438
0	5602	0.0043965415097773075
0	5604	0.0003949551028199494
0	5612	0.0015620322665199637
0	5586	-0.005022472236305475
0	5572	-0.0026790497358888388
0	5660	0.016695335507392883
0	5588	-0.013550985604524612
0	5636	0.008972298353910446
0	5606	-0.005572134628891945
0	5626	0.003695036517456174
0	5628	0.00036769662983715534
0	5610	-0.003296180162578821
0	5630	0.003649412887170911
0	5606	-0.004366070963442326
0	5602	-0.0007258035475388169
0	5622	0.00362069602124393
0	5612	-0.0018062060698866844
0	5610	-0.0003605509118642658
0	5586	-0.004319187719374895
0	5614	0.005032591987401247
0	5614	0.0
0	5640	0.0046599991619586945
0	5626	-0.002506295684725046
0	5628	0.000357687909854576
0	5594	-0.006075623910874128
0	5592	-0.0003571215784177184
0	5634	0.0074952710419893265
0	5638	0.0007133091567084193
0	5566	-0.0128330048173666
0	5594	0.004990376066416502
0	5622	0.0049899606965482235
0	5620	-0.00035638344706967473
0	5612	-0.0014253981644287705
0	5578	-0.006057942286133766
0	5622	0.007840062491595745
0	5594	-0.004987649619579315
0	5580	-0.00249480246566236
0	5602	0.003920590505003929
0	5594	-0.0014259571908041835
0	5640	0.008199837990105152
0	5630	-0.0017824252136051655
0	5682	0.0092685017734766
0	5740	0.010333524085581303
0	5654	-0.015312117524445057
0	5590	-0.011391818523406982
0	5518	-0.012816709466278553
0	5454	-0.011399664916098118
0	5434	-0.0035657405387610197
0	5402	-0.0057111578062176704
0	5402	0.0
0	5420	0.0032201125286519527
0	5464	0.007880503311753273
0	5446	-0.003227233188226819
0	5474	0.005025546532124281
0	5514	0.007185973227024078
0	6054	0.09705713391304016
0	8076	0.3624218702316284
0	8191	0.020316107198596
1	5766	-0.42205965518951416
0	3364	-0.41757211089134216
0	4972	0.2831999659538269
0	5350	0.06682813912630081
0	5436	0.015228516422212124
0	5480	0.007799436803907156
0	5510	0.005320878699421883
0	5566	0.009938888251781464
0	5540	-0.004615248180925846
0	5656	0.020595982670783997
0	5680	0.004259875975549221
0	5738	0.010289465077221394
0	5770	0.005673658102750778
0	5820	0.008857762441039085
0	5880	0.010620659217238426
0	5944	0.011319353245198727
0	6028	0.014831293374300003
0	6114	0.015145378187298775
0	6232	0.020708415657281876
0	6408	0.030747191980481148
0	6566	0.027446914464235306
0	6668	0.01760026626288891
0	6750	0.014046948403120041
0	6814	0.01088083814829588
0	6740	-0.012485448271036148
0	6468	-0.04556088522076607
0	6050	-0.06962992250919342
0	5462	-0.09765765815973282
0	4910	-0.09198007732629776
0	4446	-0.07870053499937057
0	4000	-0.07728385925292969
0	3862	-0.024159381166100502
0	3818	-0.007680670358240604
0	3860	0.007381110917776823
0	3960	0.01772882044315338
0	4094	0.023965660482645035
0	4230	0.02452601119875908
0	4350	0.021808400750160217
0	4526	0.03222302347421646
0	4662	0.025054654106497765
0	4782	0.022242818027734756
0	4846	0.011929022148251534
0	4950	0.01949268952012062
0	5030	0.015071590431034565
0	5088	0.010981382802128792
0	5176	0.016745107248425484
0	5248	0.013767608441412449
0	5234	-0.0026904107071459293
0	5342	0.02087225392460823
0	5278	-0.01244006771594286
0	5370	0.018014490604400635
0	5352	-0.003552304347977042
0	5378	0.005175914615392685
0	5428	0.010045136325061321
0	5436	0.0016222792910411954
0	5450	0.0028642353136092424
0	5458	0.0016481479397043586
0	5516	0.011997847817838192
0	5522	0.001240694778971374
0	5522	0.0
0	5544	0.004496892914175987
0	5558	0.0028318678960204124
0	5582	0.004799744114279747
0	5600	0.00355796841904521
0	5558	-0.008207826875150204
0	5602	0.008510089479386806
0	5626	0.004597172606736422
0	5622	-0.0007594263879582286
0	5632	0.0018834047950804234
0	5628	-0.000748166989069432
0	5650	0.004090283531695604
0	5624	-0.004808107390999794
0	5618	-0.0011042673140764236
0	5636	0.0032992814667522907
0	5582	-0.009861333295702934
0	5616	0.0061903721652925014
0	5642	0.004721206612884998
0	5628	-0.002536139916628599
0	5650	0.003975903615355492
0	5628	-0.003968540113419294
0	5620	-0.0014400748768821359
0	5608	-0.002156876726076007
0	5632	0.004307147581130266
0	5586	-0.008242840878665447
0	5600	0.002506325487047434
0	5618	0.0032192678190767765
0	5562	-0.01000547967851162
0	5598	0.006428112275898457
0	5610	0.00214165891520679
0	5616	0.0010702690342441201
0	5570	-0.008200813084840775
0	5584	0.0024955139961093664
0	5608	0.004277363419532776
0	5602	-0.0010691756615415215
0	5608	0.0010691629722714424
0	5600	-0.001425127382390201
0	5602	0.0003562860656529665
0	5742	0.024943580850958824
0	5720	-0.0039169141091406345
0	5660	-0.010676916688680649
0	5594	-0.011742379516363144
0	5518	-0.01352602057158947
0	5458	-0.010685156099498272
0	5410	-0.008556251414120197
0	5430	0.003569898661226034
0	5420	-0.0017865649424493313
0	5448	0.005008228123188019
0	5444	-0.0007162896217778325
0	5480	0.006453694310039282
0	5514	0.006101354490965605
0	5668	0.027654403820633888
0	6916	0.2240440398454666
0	8191	0.2271135002374649
0	7588	-0.1058037057518959
1	4532	-0.5300065279006958
0	3860	-0.11726998537778854
0	5216	0.23907895386219025
0	5454	0.042047735303640366
0	5476	0.0038900645449757576
0	5530	0.009555887430906296
0	5560	0.005311520770192146
0	5622	0.0109777906909585
0	5636	0.002478300128132105
0	5662	0.004601797088980675
0	5694	0.005661746021360159
0	5760	0.011671431362628937
0	5786	0.0045935045927762985
0	5818	0.005647424608469009
0	5822	0.0007056125323288143
0	5978	0.0275023952126503
0	6014	0.0063348677940666676
0	6116	0.01790468394756317
0	6234	0.020641038194298744
0	6386	0.02646869421005249
0	6560	0.030129000544548035
0	6674	0.019611777737736702
0	6732	0.009906684048473835
0	6768	0.006104350555688143
0	6724	-0.007405453827232122
0	6484	-0.040113434195518494
0	5982	-0.08345293253660202
0	5420	-0.0932651087641716
0	4838	-0.09739010035991669
0	4382	-0.07775996625423431
0	4074	-0.053496986627578735
0	3908	-0.02890945039689541
0	3838	-0.012187337502837181
0	3938	0.017550839111208916
0	4050	0.019832836464047432
0	4196	0.02607298083603382
0	4338	0.025561634451150894
0	4562	0.04062042757868767
0	4664	0.0186160821467638
0	4770	0.01946120522916317
0	4856	0.01587594673037529
0	4950	0.017442721873521805
0	5006	0.010443734005093575
0	5084	0.01461750827729702
0	5172	0.01656751148402691
0	5208	0.006805378943681717
0	5242	0.00645863963291049
0	5262	0.0038178625982254744
0	5334	0.01381940022110939
0	5350	0.003088763216510415
0	5352	0.0003886866325046867
0	5374	0.0043092756532132626
0	5398	0.0047412714920938015
0	5418	0.003986075054854155
0	5432	0.0028155038598924875
0	5446	0.002840102184563875
0	5466	0.004085968714207411
0	5498	0.0065606036223471165
0	5502	0.0008196384878829122
0	5534	0.006527503486722708
0	5562	0.0056671747006475925
0	5576	0.002805423690006137
0	5566	-0.0019817939028143883
0	5584	0.003526968415826559
0	5592	0.001550868502818048
0	5618	0.004990594927221537
0	5624	0.0011412919266149402
0	5620	-0.0007547074346803129
0	5608	-0.002249156590551138
0	5648	0.007453231140971184
0	5616	-0.005930245388299227
0	5630	0.002582358894869685
0	5626	-0.0007347448263317347
0	5604	-0.00402581412345171
0	5586	-0.003283433150500059
0	5646	0.010917295701801777
0	5612	-0.006170076318085194
0	5636	0.0043456219136714935
0	5606	-0.005419793073087931
0	5616	0.0018036433029919863
0	5616	0.0
0	5644	0.0050341603346168995
0	5634	-0.001795009826309979
0	5588	-0.00824540201574564
0	5590	0.0003581320052035153
0	5606	0.0028623566031455994
0	5616	0.0017872675089165568
0	5608	-0.0014285374199971557
0	5612	0.0007138013606891036
0	5576	-0.006420011166483164
0	5638	0.011053926311433315
0	5614	-0.004277007654309273
0	5604	-0.0017816843464970589
0	5582	-0.00391882099211216
0	5568	-0.0024938248097896576
0	5558	-0.0017815572209656239
0	5566	0.0014257538132369518
0	5600	0.006061542313545942
0	5624	0.004279244225472212
0	5586	-0.0067748259752988815
0	5616	0.0053505185060203075
0	5656	0.007134024985134602
0	5800	0.025678521022200584
0	5694	-0.018882712349295616
0	5590	-0.01851654052734375
0	5564	-0.004629025235772133
0	5484	-0.014250089414417744
0	5430	-0.009626125916838646
0	5408	-0.003926561214029789
0	5400	-0.0014295245055109262
0	5430	0.005367622245103121
0	5440	0.001791194430552423
0	5458	0.0032280818559229374
0	5456	-0.00035905351978726685
0	5478	0.00395271135494113
0	5728	0.044947318732738495
0	7340	0.28960859775543213
0	8191	0.15132655203342438
1	6972	-0.21349632740020752
0	3054	-0.6807953715324402
0	4640	0.2796701192855835
0	5372	0.1298401802778244
0	5398	0.00461841793730855
0	5458	0.010670903138816357
0	5490	0.005695335101336241
0	5564	0.013176560401916504
0	5586	0.003917216323316097
0	5598	0.0021364097483456135
0	5658	0.010682174935936928
0	5688	0.005340010393410921
0	5730	0.007471492514014244
0	5746	0.002844360191375017
0	5836	0.015990998595952988
0	5886	0.008881993591785431
0	5950	0.011356041766703129
0	6068	0.020893214270472527
0	6168	0.017653601244091988
0	6288	0.02109939604997635
0	6472	0.032190531492233276
0	6596	0.02155984379351139
0	6754	0.02728230319917202
0	6798	0.007540143094956875
0	6792	-0.0010202866978943348
0	6668	-0.020927682518959045
0	6244	-0.07107455283403397
0	5770	-0.07911735773086548
0	5200	-0.09511889517307281
0	4674	-0.08883384615182877
0	4254	-0.07236471772193909
0	3968	-0.05005834251642227
0	3872	-0.01671367511153221
0	3826	-0.008044489659368992
0	3944	0.020823530852794647
0	4030	0.015307392925024033
0	4196	0.02979930303990841
0	4372	0.031840987503528595
0	4520	0.026969240978360176
0	4612	0.01687392219901085
0	4766	0.02841677889227867
0	4884	0.021894017234444618
0	4952	0.012679943814873695
0	5050	0.01836283504962921
0	5090	0.0075277588330209255
0	5162	0.01361367478966713
0	5216	0.010257059708237648
0	5290	0.01412159763276577
0	5298	0.0015342521946877241
0	5314	0.0030856658704578876
0	5370	0.01086787786334753
0	5378	0.0015637011965736747
0	5382	0.0007881048368290067
0	5416	0.006759801413863897
0	5430	0.0028091766871511936
0	5426	-0.0008100008126348257
0	5482	0.011435884051024914
0	5506	0.004926647525280714
0	5506	0.0
0	5510	0.0008208720246329904
0	5534	0.0048972261138260365
0	5556	0.0044503784738481045
0	5542	-0.002802054863423109
0	5566	0.0047505940310657024
0	5568	0.00039138944703154266
0	5590	0.0042601535096764565
0	5582	-0.0015337031800299883
0	5590	0.0015202381182461977
0	5602	0.0022628987208008766
0	5610	0.0014984079170972109
0	5610	0.0
0	5638	0.005184801295399666
0	5602	-0.006635292433202267
0	5666	0.011749154888093472
0	5674	0.001463129185140133
0	5640	-0.006196238100528717
0	5658	0.003270863788202405
0	5620	-0.006886719260364771
0	5620	0.0
0	5648	0.00505451625213027
0	5614	-0.006125316489487886
0	5656	0.007555496878921986
0	5598	-0.010416417382657528
0	5614	0.0028697834350168705
0	5562	-0.00931576918810606
0	5626	0.011456530541181564
0	5592	-0.006079027429223061
0	5612	0.0035735557321459055
0	5610	-0.0003571300767362118
0	5586	-0.004282909911125898
0	5630	0.007848452776670456
0	5610	-0.003565443679690361
0	5596	-0.002495009917765856
0	5588	-0.0014252627734094858
0	5578	-0.0017813456943258643
0	5568	-0.0017812398727983236
0	5592	0.004275534301996231
0	5546	-0.008194288238883018
0	5550	0.0007127329590730369
0	5546	-0.0007129531586542726
0	5574	0.004992570262402296
0	5574	0.0
0	5596	0.0039250669069588184
0	5596	0.0
0	5610	0.00249889912083745
0	5754	0.0257127545773983
0	5674	-0.01427517831325531
0	5612	-0.01106221042573452
0	5554	-0.010349011979997158
0	5518	-0.0064260466024279594
0	5444	-0.013219321146607399
0	5364	-0.014305639080703259
0	5408	0.00788182020187378
0	5408	0.0
0	5394	-0.002513796091079712
0	5434	0.007189503405243158
0	5446	0.0021593349520117044
0	5476	0.005403068847954273
0	5712	0.042538873851299286
0	7000	0.23201912641525269
0	8191	0.21273936331272125
1	7188	-0.17646747827529907
1	3440	-0.6533752679824829
0	4342	0.1592373549938202
0	5330	0.17570795118808746
0	5428	0.017454182729125023
0	5444	0.0028520331252366304
0	5530	0.015343169681727886
0	5564	0.006066481117159128
0	5592	0.00499550998210907
0	5618	0.004637419246137142
0	5674	0.009985675103962421
0	5694	0.0035641940776258707
0	5750	0.009973937645554543
0	5796	0.008185393176972866
0	5842	0.00817637238651514
0	5928	0.015278296545147896
0	5954	0.004612082615494728
0	6074	0.02124357596039772
0	6138	0.01129524689167738
0	6274	0.02391517162322998
0	6408	0.02344939485192299
0	6546	0.024003200232982635
0	6728	0.03144889697432518
0	6748	0.003429845441132784
0	6772	0.00408420292660594
0	6674	-0.016551537439227104
0	6434	-0.0402560718357563
0	5998	-0.07274223864078522
0	5434	-0.09394833445549011
0	4822	-0.10283812880516052
0	4346	-0.0815236046910286
0	4014	-0.05779876932501793
0	3836	-0.030885618180036545
0	3854	0.003132432233542204
0	3876	0.0038615912199020386
0	3990	0.0201934315264225
0	4138	0.026443053036928177
0	4306	0.03026736155152321
0	4458	0.0275932177901268
0	4552	0.017182130366563797
0	4694	0.026125673204660416
0	4880	0.03442786633968353
0	4952	0.013394185341894627
0	5024	0.013460795395076275
0	5128	0.019537365064024925
0	5152	0.004528871271759272
0	5232	0.015170286409556866
0	5266	0.006476930808275938
0	5278	0.0022977646440267563
0	5298	0.0038507452700287104
0	5338	0.0077500357292592525
0	5378	0.007803964428603649
0	5374	-0.0007863696082495153
0	5396	0.004363751970231533
0	5420	0.004803394433110952
0	5406	-0.0028274832293391228
0	5472	0.013444328680634499
0	5482	0.002050412818789482
0	5546	0.01316908560693264
0	5530	-0.003289744257926941
0	5542	0.0024553935509175062
0	5564	0.004465131089091301
0	5534	-0.0060256291180849075
0	5580	0.009135442785918713
0	5556	-0.004712473601102829
0	5628	0.013983659446239471
0	5644	0.0030748730059713125
0	5612	-0.006090984214097261
0	5618	0.001132673816755414
0	5638	0.003748219460248947
0	5618	-0.0037229617591947317
0	5622	0.0007403477211482823
0	5650	0.005158817861229181
0	5690	0.007338282652199268
0	5614	-0.013886181637644768
0	5634	0.0036434740759432316
0	5608	-0.004722693003714085
0	5620	0.002174753462895751
0	5644	0.004340225365012884
0	5602	-0.007578673772513866
0	5624	0.003962535876780748
0	5630	0.0010788391809910536
0	5596	-0.006104202475398779
0	5584	-0.002151565859094262
0	5568	-0.0028655347414314747
0	5566	-0.0003578756586648524
0	5588	0.003932878840714693
0	5582	-0.0010718624107539654
0	5634	0.009283945895731449
0	5636	0.00035688793286681175
0	5684	0.008559913374483585
0	5742	0.010334505699574947
0	5764	0.003915844950824976
0	5658	-0.018841540440917015
0	5620	-0.006751394364982843
0	5526	-0.016694489866495132
0	5470	-0.009951663203537464
0	5462	-0.0014231330715119839
0	5442	-0.003561000106856227
0	5396	-0.008198863826692104
0	5450	0.009638611227273941
0	5468	0.0032160852570086718
0	5486	0.003219037549570203
0	5458	-0.0050122919492423534
0	5996	0.0964411199092865
0	7738	0.3115573227405548
0	8191	0.08001554757356644
1	5932	-0.3930404484272003
0	3260	-0.4640580713748932
0	4804	0.2719059884548187
0	5390	0.10368316620588303
0	5442	0.00921326968818903
0	5448	0.0010642511770129204
0	5542	0.016687871888279915
0	5570	0.004972091410309076
0	5674	0.018467549234628677
0	5658	-0.002839346183463931
0	5694	0.006385885179042816
0	5744	0.008863414637744427
0	5744	0.0
0	5832	0.015579542145133018
0	5834	0.0003537714947015047
0	5920	0.015203927643597126
0	5992	0.012717178091406822
0	6052	0.010576849803328514
0	6198	0.025671834126114845
0	6294	0.016813885420560837
0	6444	0.026145918294787407
0	6582	0.023917779326438904
0	6714	0.02272818610072136
0	6788	0.012645897455513477
0	6752	-0.006105524022132158
0	6658	-0.01582731306552887
0	6350	-0.05152081325650215
0	5852	-0.08289086073637009
0	5308	-0.09061984717845917
0	4676	-0.10671889781951904
0	4206	-0.08096561580896378
0	3916	-0.05045760050415993
0	3830	-0.014906574040651321
0	3882	0.009064286947250366
0	4004	0.02145419642329216
0	4160	0.027666442096233368
0	4294	0.023947102949023247
0	4478	0.033128876239061356
0	4578	0.018123604357242584
0	4688	0.02006884291768074
0	4798	0.02018793113529682
0	4890	0.01697751134634018
0	4998	0.02003537118434906
0	5036	0.007082152646034956
0	5130	0.01760607212781906
0	5170	0.007525020744651556
0	5236	0.012474955059587955
0	5280	0.008356439881026745
0	5320	0.007634073495864868
0	5306	-0.002686933847144246
0	5362	0.010816100053489208
0	5402	0.007779982406646013
0	5442	0.007839960046112537
0	5454	0.0023716979194432497
0	5460	0.0011963630095124245
0	5460	0.0
0	5500	0.008109970949590206
0	5500	0.0
0	5504	0.0008176392293535173
0	5556	0.010615133680403233
0	5578	0.004464285913854837
0	5556	-0.004423236474394798
0	5580	0.004772889893501997
0	5568	-0.002359077800065279
0	5622	0.010499845258891582
0	5592	-0.005772709380835295
0	5570	-0.004194790963083506
0	5612	0.007943813689053059
0	5570	-0.007887423038482666
0	5622	0.009705114178359509
0	5602	-0.0037111719138920307
0	5592	-0.0018464039312675595
0	5634	0.007721534464508295
0	5590	-0.008057821542024612
0	5660	0.012776054441928864
0	5594	-0.012007277458906174
0	5630	0.006532627157866955
0	5604	-0.004706791136413813
0	5616	0.0021681261714547873
0	5646	0.0054106698371469975
0	5630	-0.0028798042330890894
0	5640	0.001796988188289106
0	5636	-0.0007177720544859767
0	5652	0.002867760369554162
0	5654	0.0003580464981496334
0	5632	-0.003933957312256098
0	5620	-0.0021435969974845648
0	5626	0.001071033300831914
0	5582	-0.007848360575735569
0	5638	0.009984191507101059
0	5606	-0.005702473223209381
0	5612	0.0010690359631553292
0	5586	-0.004630948882550001
0	5576	-0.001781070721335709
0	5562	-0.002493380568921566
0	5588	0.004632214084267616
0	5578	-0.0017816631589084864
0	5612	0.006057366728782654
0	5636	0.004275788553059101
0	5672	0.006411169655621052
0	5776	0.018515661358833313
0	5684	-0.016362342983484268
0	5634	-0.008887730538845062
0	5542	-0.0163534227758646
0	5454	-0.015646854415535927
0	5392	-0.011037396267056465
0	5390	-0.00035647235927172005
0	5388	-0.0003569813852664083
0	5410	0.003931847866624594
0	5464	0.009662757627665997
0	5402	-0.011106334626674652
0	5442	0.007175145670771599
0	5420	-0.003951007500290871
0	5876	0.08199963718652725
0	7988	0.3792785406112671
0	8191	0.03595295920968056
1	5950	-0.39099255204200745
0	3066	-0.5022144317626953
0	4624	0.2753996253013611
0	5358	0.13048192858695984
0	5368	0.0017806373070925474
0	5412	0.007845887914299965
0	5492	0.01428222842514515
0	5536	0.00785962212830782
0	5616	0.014293626882135868
0	5608	-0.001428903080523014
0	5682	0.013215780258178711
0	5720	0.00678228260949254
0	5740	0.003567330539226532
0	5772	0.005704201757907867
0	5832	0.010689026676118374
0	5852	0.0035618243273347616
0	5922	0.012453963980078697
0	6024	0.018116263672709465
0	6116	0.016293663531541824
0	6290	0.030696313828229904
0	6438	0.025972355157136917
0	6578	0.024418747052550316
0	6702	0.021479424089193344
0	6782	0.013755079358816147
0	6798	0.00273039098829031
0	6680	-0.01997799053788185
0	6384	-0.049766577780246735
0	5968	-0.06956638395786285
0	5356	-0.10229039192199707
0	4708	-0.10991930961608887
0	4266	-0.07648205757141113
0	3986	-0.04892538860440254
0	3854	-0.022941892966628075
0	3832	-0.0038407822139561176
0	3910	0.01373932883143425
0	4040	0.023096604272723198
0	4166	0.02256932109594345
0	4308	0.025638246908783913
0	4458	0.027284303680062294
0	4610	0.02784358710050583
0	4708	0.01806185394525528
0	4778	0.012978985905647278
0	4934	0.02909398451447487
0	5000	0.012370978482067585
0	5072	0.013561024330556393
0	5094	0.004163512494415045
0	5216	0.023199502378702164
0	5248	0.006112469360232353
0	5268	0.0038392627611756325
0	5306	0.007334396708756685
0	5344	0.00738112535327673
0	5390	0.00899878703057766
0	5428	0.007491817697882652
0	5396	-0.006362166255712509
0	5440	0.008829077705740929
0	5436	-0.0008100008126348257
0	5474	0.007760170381516218
0	5490	0.003287806175649166
0	5506	0.003298606490716338
0	5522	0.003295209724456072
0	5536	0.002867285627871752
0	5552	0.003248730907216668
0	5572	0.0040183234959840775
0	5574	0.0003972615231759846
0	5610	0.007069173268973827
0	5602	-0.0015536393038928509
0	5634	0.006152347661554813
0	5590	-0.008380632847547531
0	5642	0.00982442032545805
0	5610	-0.006001050118356943
0	5620	0.0018636781023815274
0	5658	0.007042079698294401
0	5616	-0.007741269189864397
0	5608	-0.0014683748595416546
0	5662	0.00987479742616415
0	5646	-0.0029153809882700443
0	5656	0.00181602465454489
0	5658	0.00036224006908014417
0	5620	-0.0068655675277113914
0	5610	-0.0018029062775895
0	5618	0.001439694780856371
0	5618	0.0
0	5594	-0.004306117072701454
0	5614	0.003584871767088771
0	5618	0.000716041715350002
0	5582	-0.0064375377260148525
0	5586	0.0007146600401028991
0	5540	-0.008213113062083721
0	5588	0.00856765452772379
0	5582	-0.001070434576831758
0	5578	-0.0007133685285225511
0	5574	-0.0007131904712878168
0	5556	-0.003208937356248498
0	5596	0.007131650578230619
0	5600	0.0007130717858672142
0	5580	-0.003565570805221796
0	5612	0.005705659277737141
0	5560	-0.009272908791899681
0	5558	-0.0003567139501683414
0	5604	0.008208520710468292
0	5594	-0.0017845245311036706
0	5614	0.003569601336494088
0	5650	0.00642696488648653
0	5754	0.018563032150268555
0	5698	-0.00998680293560028
0	5646	-0.009271475486457348
0	5570	-0.013550618663430214
0	5514	-0.009989771991968155
0	5438	-0.01356916781514883
0	5402	-0.006434469483792782
0	5410	0.001431656419299543
0	5438	0.0050170221365988255
0	5454	0.002869955264031887
0	5422	-0.005744718946516514
0	5434	0.0021567477378994226
0	5472	0.0068372380919754505
0	5832	0.06481659412384033
0	7508	0.3013123869895935
0	8191	0.12135893851518631
1	6388	-0.3155021071434021
0	3006	-0.5890378355979919
0	4490	0.26238396763801575
0	5400	0.16193035244941711
0	5428	0.0049870871007442474
0	5456	0.004992066416889429
0	5536	0.014275262132287025
0	5568	0.0057115997187793255
0	5590	0.003927753306925297
0	5648	0.010353137739002705
0	5648	0.0
0	5704	0.009988169185817242
0	5754	0.008912179619073868
0	5832	0.01389144454151392
0	5872	0.007116129621863365
0	5934	0.011022287420928478
0	5976	0.007456283085048199
0	6072	0.017009714618325233
0	6174	0.01801939681172371
0	6294	0.02111721783876419
0	6418	0.021712103858590126
0	6604	0.03237616643309593
0	6710	0.018323989585042
0	6812	0.017504218965768814
0	6800	-0.002043446060270071
0	6618	-0.030751727521419525
0	6318	-0.050353873521089554
0	5848	-0.07851610332727432
0	5348	-0.0835203230381012
0	4778	-0.09637223184108734
0	4220	-0.09619363397359848
0	3940	-0.04887813329696655
0	3802	-0.023959720507264137
0	3790	-0.0020917828660458326
0	3842	0.009149989113211632
0	3966	0.022024083882570267
0	4180	0.03834759071469307
0	4318	0.024930747225880623
0	4524	0.03749772533774376
0	4644	0.02198553830385208
0	4742	0.018065625801682472
0	4836	0.017425263300538063
0	4960	0.023110471665859222
0	5032	0.013485502451658249
0	5110	0.014682629145681858
0	5162	0.009835445322096348
0	5220	0.011023961007595062
0	5302	0.015660610049962997
0	5308	0.0011515431106090546
0	5320	0.002315916819497943
0	5340	0.0038841988425701857
0	5384	0.00860529113560915
0	5416	0.006308567710220814
0	5442	0.005169671028852463
0	5434	-0.0016052438877522945
0	5422	-0.0024300680961459875
0	5478	0.011432616040110588
0	5502	0.004927861504256725
0	5544	0.008644227869808674
0	5556	0.002466463018208742
0	5558	0.00040889758383855224
0	5540	-0.0036468254402279854
0	5584	0.008819167502224445
0	5586	0.0003961546753998846
0	5584	-0.0003915120323654264
0	5592	0.001548446947708726
0	5590	-0.00038309284718707204
0	5588	-0.00037967474781908095
0	5596	0.0015065913321450353
0	5606	0.0018706506816670299
0	5642	0.0066941874101758
0	5650	0.0014793446753174067
0	5628	-0.0040478878654539585
0	5644	0.0029319063760340214
0	5620	-0.004381481092423201
0	5646	0.0047319186851382256
0	5662	0.0029034249018877745
0	5608	-0.009772930294275284
0	5636	0.005058108363300562
0	5608	-0.005048137623816729
0	5602	-0.0010798746952787042
0	5622	0.0035939335357397795
0	5634	0.0021532904356718063
0	5622	-0.002150486223399639
0	5590	-0.005728470627218485
0	5616	0.004650053568184376
0	5650	0.006073814816772938
0	5670	0.0035691766534000635
0	5718	0.008557471446692944
0	5794	0.0135353347286582
0	5756	-0.006758118513971567
0	5672	-0.014921484515070915
0	5614	-0.010294883511960506
0	5546	-0.012067721225321293
0	5484	-0.011005526408553123
0	5436	-0.008525451645255089
0	5440	0.000711111119017005
0	5450	0.0017793594161048532
0	5476	0.004630124196410179
0	5470	-0.0010692519135773182
0	5506	0.00642069848254323
0	5518	0.0021419646218419075
0	5814	0.052876658737659454
0	7150	0.23839546740055084
0	8191	0.18410657346248627
1	6882	-0.2280474603176117
1	3288	-0.621666669845581
0	4460	0.2055383026599884
0	5382	0.1627872735261917
0	5446	0.011316684074699879
0	5518	0.01274343766272068
0	5536	0.0031874391715973616
0	5606	0.012401892803609371
0	5636	0.0053159757517278194
0	5672	0.006378643214702606
0	5700	0.004958765115588903
0	5718	0.003186197951436043
0	5742	0.004246559925377369
0	5780	0.006720866076648235
0	5864	0.0148512227460742
0	5928	0.011310551315546036
0	5956	0.004943357314914465
0	6066	0.019387928768992424
0	6192	0.02214917168021202
0	6328	0.02381688915193081
0	6476	0.025791311636567116
0	6606	0.022518491372466087
0	6710	0.01789432018995285
0	6762	0.008882966823875904
0	6700	-0.010514236986637115
0	6536	-0.02761981263756752
0	6256	-0.046884678304195404
0	5738	-0.08638083934783936
0	5166	-0.09542611241340637
0	4516	-0.10964851081371307
0	4162	-0.060976311564445496
0	3888	-0.04794512689113617
0	3858	-0.005231159273535013
0	3904	0.00804927572607994
0	4004	0.01765058934688568
0	4156	0.02705845981836319
0	4314	0.02835572510957718
0	4466	0.027479810640215874
0	4548	0.014927184209227562
0	4680	0.024188818410038948
0	4822	0.02617994137108326
0	4964	0.02632196806371212
0	5012	0.008939213119447231
0	5152	0.02619139663875103
0	5180	0.005258874036371708
0	5264	0.015844473615288734
0	5248	-0.003030647523701191
0	5312	0.01217702403664589
0	5338	0.0049706860445439816
0	5350	0.0023067162837833166
0	5358	0.001547508523799479
0	5380	0.004286549054086208
0	5410	0.0058922115713357925
0	5456	0.009112278930842876
0	5444	-0.0023977940436452627
0	5486	0.008463078178465366
0	5446	-0.008117321878671646
0	5488	0.008570145815610886
0	5498	0.0020439866930246353
0	5540	0.008565368130803108
0	5528	-0.0024303304962813854
0	5566	0.00762572418898344
0	5586	0.003968989010900259
0	5570	-0.003139306791126728
0	5574	0.0007763673202134669
0	5626	0.009991290047764778
0	5632	0.0011420885566622019
0	5608	-0.004530467092990875
0	5608	0.0
0	5612	0.0007447587558999658
0	5626	0.0025916649028658867
0	5600	-0.004789330996572971
0	5652	0.009541401639580727
0	5612	-0.00731092132627964
0	5642	0.005467867013067007
0	5608	-0.0061795711517333984
0	5644	0.0065294671803712845
0	5604	-0.0072376360185444355
0	5610	0.0010837367735803127
0	5656	0.008295063860714436
0	5628	-0.00503989914432168
0	5638	0.0017970529152080417
0	5630	-0.0014354238519445062
0	5586	-0.007884456776082516
0	5608	0.003939169924706221
0	5612	0.0007155123166739941
0	5612	0.0
0	5608	-0.0007142687099985778
0	5610	0.0003568794345483184
0	5648	0.006776195485144854
0	5682	0.0060590216889977455
0	5630	-0.009258270263671875
0	5650	0.0035595211666077375
0	5746	0.017079217359423637
0	5770	0.00426535215228796
0	5696	-0.013136249966919422
0	5612	-0.014905245043337345
0	5520	-0.016326723620295525
0	5466	-0.009588068351149559
0	5448	-0.0031987109687179327
0	5430	-0.0032018215861171484
0	5408	-0.003917890600860119
0	5424	0.002852626144886017
0	5456	0.0057129934430122375
0	5462	0.0010721816215664148
0	5476	0.0025044423528015614
0	5558	0.01468043215572834
0	6072	0.09206850081682205
0	8006	0.3454558551311493
0	8191	0.03258036449551582
1	5950	-0.38887572288513184
1	3022	-0.5071446895599365
0	4910	0.3320261240005493
0	5392	0.0851244255900383
0	5446	0.009547664783895016
0	5456	0.0017697758739814162
0	5530	0.013108404353260994
0	5574	0.007797962054610252
0	5646	0.012762865051627159
0	5674	0.0049622803926467896
0	5632	-0.0074422783218324184
0	5736	0.018433941528201103
0	5730	-0.0010628310265019536
0	5792	0.01097740139812231
0	5830	0.006726258900016546
0	5938	0.019109969958662987
0	5994	0.009894750081002712
0	6072	0.013751036487519741
0	6232	0.028116047382354736
0	6378	0.025541294366121292
0	6520	0.02470754086971283
0	6678	0.02731878124177456
0	6718	0.006865892093628645
0	6814	0.01635703817009926
0	6776	-0.0064251055009663105
0	6568	-0.03491045907139778
0	6078	-0.08174159377813339
0	5566	-0.0851653665304184
0	5010	-0.09274446964263916
0	4500	-0.08651252835988998
0	4156	-0.05959736928343773
0	3916	-0.042014844715595245
0	3840	-0.013235651887953281
0	3900	0.010514509864151478
0	3932	0.005657041911035776
0	4092	0.028539830818772316
0	4210	0.021220222115516663
0	4388	0.032265469431877136
0	4552	0.029942305758595467
0	4658	0.01948266662657261
0	4774	0.02145420014858246
0	4862	0.016362149268388748
0	4932	0.013086232356727123
0	5048	0.021794132888317108
0	5052	0.0007550398586317897
0	5152	0.0189688540995121
0	5216	0.012200701050460339
0	5230	0.0026821636129170656
0	5306	0.014639032073318958
0	5328	0.00426296005025506
0	5348	0.0039018807001411915
0	5346	-0.00039318480412475765
