0	5680	0.0003675164480227977
0	5670	-0.0018346828874200583
0	5680	0.0018320834496989846
0	5658	-0.004025028552860022
0	5666	0.0014617033302783966
0	5700	0.006205134093761444
0	5714	0.002551175421103835
0	5768	0.009831408970057964
0	5770	0.0003637024783529341
0	5786	0.0029061671812087297
0	5778	-0.001451027812436223
0	5734	-0.007965818978846073
0	5682	-0.009394986554980278
0	5618	-0.011539709754288197
0	5540	-0.014036350883543491
0	5428	-0.020128438249230385
0	5332	-0.01724241115152836
0	5282	-0.008981497958302498
0	5268	-0.0025151807349175215
0	5268	0.0
0	5286	0.0032649310305714607
0	5298	0.002182162133976817
0	5310	0.002169877290725708
0	5334	0.004323545377701521
0	5382	0.008631748147308826
0	5366	-0.002877594204619527
0	5428	0.011164868250489235
0	5454	0.0046873874962329865
0	5488	0.006136445794254541
0	5500	0.002168073784559965
0	5540	0.007234668824821711
0	5540	0.0
0	5572	0.005797171499580145
0	5590	0.0032630369532853365
0	5586	-0.000725417397916317
0	5584	-0.00036288422415964305
0	5576	-0.0014525558799505234
0	5568	-0.0014537702081725001
0	5538	-0.005458250641822815
0	5510	-0.005101545248180628
0	5482	-0.005110110621899366
0	5470	-0.0021939980797469616
0	5464	-0.0010987669229507446
0	5416	-0.008801848627626896
0	5426	0.001835985342040658
0	5420	-0.0011023603146895766
0	5438	0.003307242877781391
0	5438	0.0
0	5592	0.028249967843294144
0	5564	-0.00512620247900486
0	5538	-0.004751462023705244
0	5494	-0.008028611540794373
0	5404	-0.016402605921030045
0	5362	-0.007650179788470268
0	5248	-0.020761245861649513
0	5260	0.002187173580750823
0	5288	0.005106693599373102
0	5280	-0.0014602980809286237
0	5332	0.00950199831277132
0	5646	0.05743201822042465
0	6296	0.11878220736980438
0	5890	-0.07385309785604477
1	4268	-0.2944237291812897
0	4430	0.02963992953300476
0	4944	0.09471279382705688
0	5448	0.09323779493570328
0	5680	0.042955007404088974
0	5704	0.004440770950168371
0	5700	-0.0007395082502625883
0	5734	0.006279550958424807
0	5748	0.0025821365416049957
0	5756	0.0014730975963175297
0	5770	0.0025734032969921827
0	5728	-0.007705762051045895
0	5758	0.005493633449077606
0	5776	0.0032895139884203672
0	5804	0.00510594854131341
0	5840	0.006550218444317579
0	5844	0.0007260318961925805
0	5926	0.014860996045172215
0	5930	0.0007233447395265102
0	5970	0.007216395810246468
0	5930	-0.007195797748863697
0	5924	-0.0010759758297353983
0	5892	-0.005719324108213186
0	5794	-0.017448484897613525
0	5690	-0.018458262085914612
0	5582	-0.019122716039419174
0	5436	-0.02580508403480053
0	5350	-0.015190946869552135
0	5322	-0.004954524803906679
0	5300	-0.003915334120392799
0	5322	0.0039290860295295715
0	5366	0.007809172384440899
0	5408	0.007413160055875778
0	5440	0.005632744636386633
0	5460	0.0035206309985369444
0	5460	0.0
0	5496	0.006354436278343201
0	5520	0.004241381771862507
0	5508	-0.002123367739841342
0	5502	-0.0010631888872012496
0	5514	0.0021295726764947176
0	5536	0.003910137806087732
0	5534	-0.0003558718890417367
0	5490	-0.007839596830308437
0	5512	0.003926468081772327
0	5536	0.004290873650461435
0	5528	-0.0014328871620818973
0	5534	0.0010766966734081507
0	5510	-0.004316909238696098
0	5510	0.0
0	5502	-0.001446602283976972
0	5482	-0.0036258597392588854
0	5516	0.006180469412356615
0	5498	-0.0032794850412756205
0	5518	0.003650434548035264
0	5526	0.0014617033302783966
0	5656	0.023760782554745674
0	5630	-0.0047457958571612835
0	5628	-0.0003644403477665037
0	5600	-0.005092699080705643
0	5502	-0.01779208518564701
0	5406	-0.017410017549991608
0	5374	-0.005801936611533165
0	5402	0.005077737849205732
0	5412	0.0018138944869861007
0	5426	0.002540189540013671
0	5440	0.00254071201197803
0	5494	0.009803209453821182
0	6152	0.11947272717952728
0	6174	0.003979019820690155
1	5158	-0.18301689624786377
0	4366	-0.14297233521938324
0	4870	0.09162747859954834
0	5228	0.06534754484891891
0	5526	0.054482296109199524
0	5614	0.016087358817458153
0	5628	0.0025581365916877985
0	5652	0.004382707644253969
0	5656	0.000729926978237927
0	5640	-0.002917117439210415
0	5634	-0.0010930554708465934
0	5634	0.0
0	5608	-0.004728419240564108
0	5636	0.005089305341243744
0	5640	0.0007264362066052854
0	5628	-0.002177700400352478
0	5680	0.009430882520973682
0	5700	0.003626736346632242
0	5724	0.0043502431362867355
0	5732	0.0014492403715848923
0	5728	-0.0007240430568344891
0	5702	-0.004699870944023132
0	5658	-0.007939468137919903
0	5606	-0.009367006830871105
0	5520	-0.015472634695470333
0	5410	-0.019777771085500717
0	5308	-0.018341146409511566
0	5248	-0.010797452181577682
0	5216	-0.0057671512477099895
0	5200	-0.0028998814523220062
0	5198	-0.00036463080323301256
0	5210	0.0021872532088309526
0	5248	0.00689096562564373
0	5290	0.007598967291414738
0	5318	0.005064084660261869
0	5344	0.004708268214017153
0	5396	0.009431908838450909
0	5416	0.003632752923294902
0	5434	0.0032741560135036707
0	5482	0.00874285027384758
0	5484	0.00036463525611907244
0	5472	-0.002189807826653123
0	5496	0.0043839355930686
0	5468	-0.0051180818118155
0	5452	-0.0029276146087795496
0	5450	-0.0003663719689939171
0	5460	0.001833852962590754
0	5468	0.001469057984650135
0	5482	0.002574507612735033
0	5504	0.004051664844155312
0	5490	-0.002581946086138487
0	5498	0.0014775595627725124
0	5516	0.00332868960686028
0	5538	0.004071963019669056
0	5516	-0.004073671996593475
0	5510	-0.0011110288323834538
0	5646	0.025167785584926605
0	5682	0.006648199632763863
0	5672	-0.0018418014515191317
0	5604	-0.012489286251366138
0	5548	-0.010259917937219143
0	5458	-0.01645398512482643
0	5410	-0.00876221526414156
0	5448	0.006929922383278608
0	5464	0.002915062243118882
0	5508	0.008009320124983788
0	5498	-0.0018184903310611844
0	5730	0.042162906378507614
0	6336	0.1099233329296112
0	5720	-0.11113115400075912
1	4356	-0.24572445452213287
0	4924	0.1030229702591896
0	5266	0.06223764270544052
0	5610	0.06268907338380814
0	5706	0.0174795463681221
0	5702	-0.0007271933718584478
0	5716	0.002541295951232314
0	5710	-0.0010874425061047077
0	5728	0.0032575647346675396
0	5724	-0.0007228306494653225
0	5724	0.0
0	5734	0.001802148181013763
0	5738	0.0007198387756943703
0	5758	0.003594406880438328
0	5752	-0.0010769028449431062
0	5770	0.0032261533197015524
0	5792	0.003936960827559233
0	5816	0.004291129298508167
0	5836	0.0035730875097215176
0	5792	-0.007853122428059578
0	5774	-0.0032090519089251757
0	5740	-0.006053412798792124
0	5684	-0.009953667409718037
0	5616	-0.012067006900906563
0	5508	-0.01914622075855732
0	5400	-0.019141243770718575
0	5336	-0.011350201442837715
0	5288	-0.00852081086486578
0	5262	-0.004627542104572058
0	5258	-0.0007164949201978743
0	5280	0.003951622638851404
0	5322	0.0075025008991360664
0	5324	0.0003564172948244959
0	5362	0.006769596133381128
0	5392	0.005352300126105547
0	5412	0.0035748756490647793
0	5430	0.003222957020625472
0	5458	0.0050220610573887825
0	5458	0.0
0	5476	0.00323857506737113
0	5472	-0.0007207553717307746
0	5472	0.0
0	5490	0.003253443166613579
0	5478	-0.0021722076926380396
0	5500	0.003989120479673147
0	5468	-0.005811208393424749
0	5472	0.0007277314434759319
0	5458	-0.0025520124472677708
0	5464	0.0010961040388792753
0	5490	0.004760568030178547
0	5458	-0.0058699799701571465
0	5516	0.010659935884177685
0	5536	0.0036808911245316267
0	5472	-0.011789556592702866
0	5520	0.008849992416799068
0	5630	0.020279737189412117
0	5670	0.0073640416376292706
0	5606	-0.011758365668356419
0	5554	-0.009535103105008602
0	5384	-0.031116914004087448
0	5368	-0.002926400862634182
0	5360	-0.0014624159084632993
0	5372	0.0021931161172688007
0	5408	0.006577424705028534
0	5440	0.0058449627831578255
0	5568	0.023373018950223923
0	6212	0.1174839437007904
0	6046	-0.030139805749058723
1	4872	-0.21240155398845673
0	4546	-0.05918950214982033
0	5054	0.09275601804256439
0	5462	0.07468697428703308
0	5704	0.044302329421043396
0	5738	0.00621617678552866
0	5748	0.00182539492379874
0	5754	0.0010935867903754115
0	5756	0.00036389660090208054
0	5774	0.0032694381661713123
0	5776	0.0003625771787483245
0	5778	0.00036189486854709685
0	5790	0.0021676039323210716
0	5800	0.0018027329351752996
0	5784	-0.002879458712413907
0	5822	0.00682855537161231
0	5826	0.000717291550245136
0	5860	0.006085846107453108
0	5902	0.007507507689297199
0	5894	-0.0014280274044722319
0	5872	-0.003920357208698988
0	5840	-0.005691586993634701
0	5804	-0.006385771557688713
0	5732	-0.012738702818751335
0	5634	-0.017300834879279137
0	5514	-0.021152082830667496
0	5392	-0.02149123325943947
0	5270	-0.021497292444109917
0	5220	-0.008825813420116901
0	5176	-0.007812315132468939
0	5198	0.003926374483853579
0	5198	0.0
0	5208	0.0017743919743224978
0	5234	0.004609220661222935
0	5264	0.005325506906956434
0	5324	0.010678816586732864
0	5342	0.003211533185094595
0	5380	0.00679631344974041
0	5386	0.0010755001567304134
0	5400	0.0025150603614747524
0	5416	0.0028808065690100193
0	5422	0.0010826416546478868
0	5450	0.005063169170171022
0	5424	-0.00471116928383708
0	5442	0.003269002540037036
0	5426	-0.002911808667704463
0	5424	-0.0003648525453172624
0	5442	0.0032917195931077003
0	5428	-0.002566766459494829
0	5450	0.00404520845040679
0	5442	-0.0014749987749382854
0	5482	0.007394535467028618
0	5500	0.003334897803142667
0	5556	0.010394752956926823
0	5460	-0.01783900335431099
0	5516	0.010417313314974308
0	5630	0.021206408739089966
0	5702	0.01337378565222025
0	5648	-0.010003580711781979
0	5538	-0.020323950797319412
0	5432	-0.019541332498192787
0	5372	-0.011045248247683048
0	5374	0.0003677822824101895
0	5404	0.005511126480996609
0	5386	-0.0033032370265573263
0	5460	0.013569848611950874
0	5690	0.04214152321219444
0	6390	0.12798479199409485
0	6116	-0.04979041963815689
1	4788	-0.2402576357126236
0	4566	-0.040312331169843674
0	5094	0.09637381881475449
0	5510	0.07608271390199661
0	5736	0.04131828621029854
0	5758	0.004014500882476568
0	5760	0.000364254490705207
0	5752	-0.001454069628380239
0	5752	0.0
0	5752	0.0
0	5712	-0.007228218950331211
0	5718	0.001082524424418807
0	5716	-0.00036024354631081223
0	5750	0.006115547847002745
0	5772	0.003951197024434805
0	5772	0.0
0	5796	0.0042968145571649075
0	5826	0.005362058058381081
0	5844	0.003213482443243265
0	5842	-0.00035675213439390063
0	5788	-0.00962120946496725
0	5732	-0.009962758980691433
0	5658	-0.013141694478690624
0	5566	-0.016310706734657288
0	5464	-0.01806311495602131
0	5346	-0.020889146253466606
0	5268	-0.013811339624226093
0	5212	-0.009927082806825638
0	5182	-0.005333143752068281
0	5214	0.005729701370000839
0	5182	-0.005760714411735535
0	5208	0.004669540096074343
0	5270	0.01109242532402277
0	5308	0.006791454739868641
0	5332	0.004294507671147585
0	5370	0.006816061679273844
0	5400	0.005393614061176777
0	5448	0.008648441173136234
0	5456	0.0014440433587878942
0	5480	0.00433985935524106
0	5474	-0.0010867464588955045
0	5528	0.009794793091714382
0	5542	0.0025423113256692886
0	5568	0.004726413171738386
0	5578	0.0018198583275079727
0	5576	-0.0003644005046226084
0	5600	0.004378017503768206
0	5600	0.0
0	5600	0.0
0	5626	0.004762137308716774
0	5638	0.002200811868533492
0	5724	0.01578696258366108
0	5728	0.0007343132165260613
0	5602	-0.02312096208333969
0	5754	0.027885815128684044
0	5888	0.024540025740861893
0	5864	-0.004380734637379646
0	5750	-0.0207333043217659
0	5644	-0.0192156620323658
0	5530	-0.020608369261026382
0	5508	-0.0039694951847195625
0	5532	0.004321884363889694
0	5548	0.002875663572922349
0	5576	0.0050240433774888515
0	5576	0.0
0	5736	0.02862117439508438
0	6644	0.16207146644592285
0	6316	-0.05811550095677376
1	4964	-0.23832747340202332
0	4608	-0.06293681263923645
0	5002	0.0700145736336708
0	5406	0.07199287414550781
0	5676	0.04814894124865532
0	5752	0.01354224793612957
0	5784	0.005695774219930172
0	5776	-0.001422205357812345
0	5792	0.002841043518856168
0	5804	0.0021283640526235104
0	5804	0.0
0	5782	-0.0038926110137254
0	5748	-0.006010323762893677
0	5754	0.0010599582456052303
0	5768	0.0024727992713451385
0	5744	-0.00423808628693223
0	5774	0.005293183494359255
0	5786	0.0021170242689549923
0	5808	0.0038835410960018635
0	5822	0.0024721587542444468
0	5808	-0.0024711114820092916
0	5764	-0.00775886420160532
0	5724	-0.007043824065476656
0	5666	-0.010200612246990204
0	5550	-0.02038521133363247
0	5462	-0.015464460477232933
0	5352	-0.01934349350631237
0	5278	-0.013030003756284714
0	5228	-0.008827787823975086
0	5182	-0.008189813233911991
0	5200	0.003226423403248191
0	5198	-0.0003579866897780448
0	5218	0.003567309118807316
0	5230	0.002137640258297324
0	5252	0.0039231074042618275
0	5306	0.00965377502143383
0	5306	0.0
0	5312	0.001078580622561276
0	5336	0.00432635098695755
0	5342	0.0010845594806596637
0	5354	0.0021751741878688335
0	5370	0.002908139256760478
0	5348	-0.004008697345852852
0	5336	-0.0021918874699622393
0	5338	0.0003662467061076313
0	5348	0.001836052630096674
0	5342	-0.001104308059439063
0	5340	-0.0003690808662213385
0	5354	0.0025906735099852085
0	5368	0.002597948769107461
0	5400	0.0059548914432525635
0	5330	-0.013059376738965511
0	5348	0.0033672135323286057
0	5468	0.022500844672322273
0	5552	0.01577010750770569
0	5488	-0.01201516855508089
0	5404	-0.01576734334230423
0	5308	-0.018013959750533104
0	5286	-0.00412742467597127
0	5292	0.0011252531548961997
0	5320	0.005247573368251324
0	5376	0.010487284511327744
0	5406	0.005611951928585768
0	5500	0.017563527449965477
0	6174	0.12572281062602997
0	6096	-0.014466590248048306
1	4962	-0.2092997431755066
0	4542	-0.07768283039331436
0	4992	0.08362861722707748
0	5384	0.07300538569688797
0	5614	0.04282362759113312
0	5640	0.0048331329599022865
0	5656	0.0029692682437598705
0	5662	0.0011113581713289022
0	5654	-0.0014788341941311955
0	5658	0.000737980124540627
0	5664	0.0011048638261854649
0	5652	-0.0022053688298910856
0	5650	-0.00036686030216515064
0	5632	-0.0032957778312265873
0	5630	-0.0003656084300018847
0	5638	0.0014603870222344995
0	5682	0.008017103187739849
0	5680	-0.0003636760520748794
0	5698	0.0032688837964087725
0	5702	0.0007257771794684231
0	5698	-0.0007248389883898199
0	5650	-0.008682649582624435
0	5648	-0.0003610325511544943
0	5568	-0.014409913681447506
0	5482	-0.015465030446648598
0	5394	-0.015809329226613045
0	5302	-0.016526155173778534
0	5250	-0.009346690028905869
0	5236	-0.0025201914831995964
0	5232	-0.0007241304265335202
0	5224	-0.0014558512484654784
0	5266	0.007631091400980949
0	5272	0.0010853966232389212
0	5292	0.0036118903663009405
0	5344	0.009396118111908436
0	5364	0.00361977843567729
0	5422	0.010514865629374981
0	5430	0.0014523800928145647
0	5458	0.00509047694504261
0	5462	0.0007280758582055569
0	5488	0.0047381273470819
0	5528	0.007297228556126356
0	5524	-0.0007302734884433448
0	5540	0.002923335414379835
0	5504	-0.006581192370504141
0	5500	-0.0007318055140785873
0	5520	0.003662109375
0	5526	0.0010997202480211854
0	5536	0.0018345931312069297
0	5596	0.011018474586308002
0	5562	-0.006247856188565493
0	5496	-0.012138302437961102
0	5564	0.01251794770359993
0	5710	0.02689063362777233
0	5670	-0.007360879331827164
0	5558	-0.02058672159910202
0	5486	-0.013221035711467266
0	5386	-0.018341893330216408
0	5396	0.0018326655263081193
0	5440	0.00805585365742445
0	5458	0.0032913985196501017
0	5482	0.004382281098514795
0	5500	0.003282395424321294
0	6016	0.09396511316299438
0	6326	0.0562049001455307
1	5244	-0.19501586258411407
0	4452	-0.14285027980804443
0	4990	0.09760641306638718
0	5342	0.06403182446956635
0	5662	0.058251719921827316
0	5698	0.0065453751012682915
0	5698	0.0
0	5702	0.0007255928358063102
0	5722	0.003624063916504383
0	5706	-0.002896067453548312
0	5714	0.0014462709659710526
0	5712	-0.0003611020802054554
0	5706	-0.0010820558527484536
0	5722	0.0028823635075241327
0	5666	-0.010077016428112984
0	5718	0.009353303350508213
0	5732	0.0025158438365906477
0	5736	0.0007177977822721004
0	5782	0.008246189914643764
0	5796	0.002508630743250251
0	5790	-0.0010743190068751574
0	5742	-0.008582668378949165
0	5732	-0.0017853316385298967
0	5662	-0.012471641413867474
0	5558	-0.01850007101893425
0	5480	-0.013865352608263493
0	5330	-0.02666066400706768
0	5256	-0.01316444855183363
0	5188	-0.012114589102566242
0	5180	-0.0014322885544970632
0	5196	0.0028843034524470568
0	5220	0.004327703267335892
0	5238	0.0032308632507920265
0	5252	0.0025091704446822405
0	5282	0.00537968659773469
0	5318	0.006470320280641317
0	5348	0.005404236726462841
0	5388	0.007220825180411339
0	5416	0.005064145661890507
0	5428	0.0021743595134466887
0	5456	0.005082038696855307
0	5476	0.0036357026547193527
0	5490	0.0025486364029347897
0	5472	-0.0032811190467327833
0	5490	0.0032861107029020786
0	5500	0.0018275744514539838
0	5502	0.00036600095336325467
0	5508	0.0010995455086231232
0	5544	0.006606474053114653
0	5584	0.007351229432970285
0	5500	-0.015457656234502792
0	5518	0.003318257862702012
0	5696	0.032859109342098236
0	5746	0.009232132695615292
0	5664	-0.015132874250411987
0	5604	-0.011065619066357613
0	5484	-0.022114379331469536
0	5434	-0.00920561607927084
0	5432	-0.0003678228531498462
0	5454	0.004040008410811424
0	5474	0.003666585311293602
0	5506	0.0058565870858728886
0	5692	0.03398212045431137
0	6464	0.14065517485141754
0	5974	-0.08862362056970596
1	4482	-0.26872876286506653
0	4772	0.052496287971735
0	5224	0.08210717886686325
0	5618	0.0716424435377121
0	5748	0.0236094631254673
0	5774	0.004712763242423534
0	5794	0.0036182506009936333
0	5784	-0.0018056625267490745
0	5790	0.001081483787856996
0	5804	0.002518650144338608
0	5786	-0.00323217804543674
0	5776	-0.0017925859428942204
0	5762	-0.002505518263205886
0	5772	0.0017869481816887856
0	5770	-0.0003569049295037985
0	5782	0.0021390628535300493
0	5820	0.00676236767321825
0	5862	0.007460830733180046
0	5876	0.0024845015723258257
0	5870	-0.001063968171365559
0	5808	-0.010980966500937939
0	5778	-0.005306979641318321
0	5712	-0.011655149050056934
0	5616	-0.016925247386097908
0	5506	-0.019372563809156418
0	5410	-0.016901805996894836
0	5324	-0.015146889723837376
0	5256	-0.011989421211183071
0	5244	-0.0021212156862020493
0	5238	-0.0010682872962206602
0	5250	0.002145948354154825
0	5302	0.00925673171877861
0	5314	0.0021294718608260155
0	5342	0.004966123960912228
0	5380	0.00675075501203537
0	5392	0.0021364730782806873
0	5418	0.004639543127268553
0	5424	0.0010730637004598975
0	5404	-0.0035845718812197447
0	5440	0.006467143073678017
0	5440	0.0
0	5438	-0.00036081980215385556
0	5452	0.0025308828335255384
0	5466	0.002535619307309389
0	5452	-0.0025403122417628765
0	5452	0.0
0	5498	0.00837958324700594
0	5506	0.0014601738657802343
0	5518	0.0021950150839984417
0	5578	0.010999083518981934
0	5494	-0.015426241792738438
0	5450	-0.00809597410261631
0	5538	0.016224587336182594
0	5746	0.03839007765054703
0	5642	-0.019179699942469597
0	5540	-0.01879514567553997
0	5448	-0.016938958317041397
0	5348	-0.01839791052043438
0	5344	-0.0007355014095082879
0	5372	0.005145356524735689
0	5408	0.006610032636672258
0	5444	0.006603647023439407
0	5450	0.0010996529599651694
0	6026	0.10547905415296555
0	6340	0.05726165324449539
1	5422	-0.16643701493740082
0	4260	-0.21063698828220367
0	4858	0.10916392505168915
0	5272	0.07583621144294739
0	5646	0.06856430321931839
0	5694	0.008788633160293102
0	5726	0.0058500198647379875
0	5710	-0.0029198857955634594
0	5738	0.0051017929799854755
0	5736	-0.0003638127527665347
0	5746	0.0018159367609769106
0	5766	0.003625421319156885
0	5754	-0.0021717362105846405
0	5768	0.0025299072731286287
0	5768	0.0
0	5780	0.002162759657949209
0	5798	0.00323857506737113
0	5800	0.00035909219877794385
0	5832	0.005736480467021465
0	5824	-0.0014333834405988455
0	5806	-0.003221611026674509
0	5766	-0.007147792726755142
0	5724	-0.00749099301174283
0	5670	-0.009609795175492764
0	5528	-0.025221427902579308
0	5376	-0.02697267197072506
0	5312	-0.01135906483978033
0	5244	-0.012078438885509968
0	5208	-0.006402276456356049
0	5198	-0.0017870758892968297
0	5182	-0.0028789062052965164
0	5222	0.0072076404467225075
0	5232	0.0017915581120178103
0	5284	0.009295341558754444
0	5320	0.006434776354581118
0	5350	0.005372749175876379
0	5374	0.004307044669985771
0	5398	0.004316132981330156
0	5422	0.004324220586568117
0	5434	0.002166221383959055
0	5456	0.0039786361157894135
0	5454	-0.00036232758429832757
0	5456	0.0003630115243140608
0	5472	0.002909337868914008
0	5480	0.0014572833897545934
0	5468	-0.0021897542756050825
0	5484	0.0029252241365611553
0	5488	0.0007327080820687115
0	5494	0.001101159956306219
0	5500	0.0011034415801987052
0	5500	0.0
0	5566	0.01218491606414318
0	5548	-0.0033272539731115103
0	5492	-0.010362694039940834
0	5596	0.0192661564797163
0	5696	0.018517374992370605
0	5684	-0.002217704663053155
0	5634	-0.009219309315085411
0	5554	-0.014715621247887611
0	5432	-0.022393813356757164
0	5374	-0.010631018318235874
0	5372	-0.00036615729914046824
0	5406	0.006218981463462114
0	5440	0.006212390959262848
0	5432	-0.0014603515155613422
0	5662	0.04195651039481163
0	6444	0.14238201081752777
0	6024	-0.07597776502370834
1	4358	-0.30024510622024536
0	4738	0.06892381608486176
0	5162	0.07722945511341095
0	5568	0.07408308237791061
0	5718	0.027351632714271545
0	5750	0.005825737491250038
0	5748	-0.000363495375495404
0	5772	0.004354873672127724
0	5776	0.0007244801381602883
0	5766	-0.001808013184927404
0	5762	-0.000721995544154197
0	5718	-0.007929165847599506
0	5750	0.005759124644100666
0	5748	-0.00035940625821240246
0	5748	0.0
0	5788	0.007171714678406715
0	5798	0.0017897625220939517
0	5826	0.005005302838981152
0	5854	0.0050014290027320385
0	5850	-0.0007137673674151301
0	5802	-0.008554218336939812
0	5812	0.0017795072635635734
0	5740	-0.012783636339008808
0	5662	-0.013819006271660328
0	5578	-0.014856562949717045
0	5458	-0.02120216377079487
0	5332	-0.02225991152226925
0	5268	-0.011313282884657383
0	5228	-0.007087256293743849
0	5214	-0.0024984830524772406
0	5216	0.0003586543316487223
0	5216	0.0
0	5266	0.008895319886505604
0	5262	-0.0007111869635991752
0	5324	0.011043425649404526
0	5346	0.003927823156118393
0	5374	0.005011096131056547
0	5384	0.0017936790827661753
0	5420	0.0064722588285803795
0	5440	0.0036033871583640575
0	5460	0.003610455896705389
0	5482	0.003978732042014599
0	5476	-0.0010866547236219049
0	5484	0.0014512735651805997
0	5486	0.00036339848884381354
0	5484	-0.0003639760834630579
0	5482	-0.0003646485274657607
0	5498	0.002922801300883293
0	5534	0.0065894643776118755
0	5538	0.00073359499219805
0	5530	-0.00146999373100698
0	5550	0.0036811172030866146
0	5558	0.0014748175162822008
0	5550	-0.001476468751206994
0	5550	0.0
0	5696	0.026968782767653465
0	5686	-0.0018444738816469908
0	5672	-0.00257665547542274
0	5612	-0.011015507392585278
0	5522	-0.016484523192048073
0	5416	-0.01937866397202015
0	5412	-0.0007303801248781383
0	5426	0.0025532846339046955
0	5438	0.0021864029113203287
0	5458	0.003640113864094019
0	5492	0.006183167453855276
0	5594	0.018533099442720413
0	6408	0.1477045863866806
0	6284	-0.02236195094883442
1	4902	-0.2479398250579834
0	4518	-0.06911446899175644
0	4964	0.08072982728481293
0	5344	0.06899891048669815
0	5612	0.04870130121707916
0	5684	0.013073793612420559
0	5708	0.004352715332061052
0	5730	0.003984592854976654
0	5716	-0.0025318593252450228
0	5730	0.0025285363662987947
0	5738	0.0014431749004870653
0	5712	-0.004684684798121452
0	5718	0.0010799006558954716
0	5714	-0.0007192089105956256
0	5714	0.0
0	5700	-0.002512412378564477
0	5744	0.00788907427340746
0	5770	0.004660389386117458
0	5786	0.002866493072360754
0	5784	-0.00035806786036118865
0	5766	-0.0032193062361329794
0	5742	-0.004286173731088638
0	5688	-0.009625211358070374
0	5580	-0.01921890489757061
0	5514	-0.011734167113900185
0	5382	-0.02345776930451393
0	5282	-0.017779041081666946
0	5234	-0.008544574491679668
0	5234	0.0
0	5202	-0.005748709198087454
0	5226	0.004339649807661772
0	5254	0.0050530568696558475
0	5268	0.002515391679480672
0	5280	0.0021521318703889847
0	5320	0.007176518440246582
0	5350	0.005391804501414299
0	5374	0.0043220920488238335
0	5390	0.0028871833346784115
0	5436	0.00831766240298748
0	5446	0.0018112441757693887
0	5476	0.0054430654272437096
0	5452	-0.004361363127827644
0	5422	-0.0054603032767772675
0	5452	0.0054701268672943115
0	5458	0.0010957702761515975
0	5474	0.0029266150668263435
0	5462	-0.002197990193963051
0	5460	-0.0003669635043479502
0	5476	0.0029412847943603992
0	5494	0.0033152427058666945
0	5496	0.00036901733255945146
0	5498	0.000369631132343784
0	5564	0.012216189876198769
0	5618	0.01000271737575531
0	5598	-0.003703841008245945
0	5562	-0.006663458421826363
0	5514	-0.008874754421412945
0	5440	-0.01366237923502922
0	5364	-0.01401386596262455
0	5322	-0.007738322019577026
0	5352	0.005523302126675844
0	5360	0.0014717425219714642
0	5392	0.0058831460773944855
0	5392	0.0
0	5514	0.022397102788090706
0	6292	0.1426580548286438
0	6138	-0.028076572343707085
1	4886	-0.22720398008823395
0	4490	-0.0720830038189888
0	4948	0.08385002613067627
0	5376	0.07859652489423752
0	5594	0.04005732759833336
0	5630	0.006609223783016205
0	5660	0.00550068449229002
0	5678	0.0032962204422801733
0	5664	-0.0025602886453270912
0	5678	0.0025573265738785267
0	5662	-0.0029188203625380993
0	5666	0.0007288098568096757
0	5654	-0.0021839095279574394
0	5640	-0.00254542357288301
0	5674	0.006176352966576815
0	5690	0.0029034249018877745
0	5734	0.007978337816894054
0	5728	-0.0010871929116547108
0	5772	0.00796649232506752
0	5752	-0.0036165493074804544
0	5768	0.002889094641432166
0	5722	-0.008289782330393791
0	5648	-0.013307119719684124
0	5570	-0.01399906724691391
0	5500	-0.012546900659799576
0	5316	-0.03295286372303963
0	5272	-0.007883609272539616
0	5216	-0.010040880180895329
0	5192	-0.004310912452638149
0	5198	0.0010848732199519873
0	5192	-0.001091054524295032
0	5224	0.005808184389024973
0	5258	0.006143912207335234
0	5262	0.0007214660290628672
0	5298	0.006497647613286972
0	5352	0.009763859212398529
0	5388	0.0065201641991734505
0	5434	0.008345024660229683
0	5424	-0.0018168165115639567
0	5458	0.0061861672438681126
0	5460	0.0003643783857114613
0	5474	0.002553781261667609
0	5486	0.0021915140096098185
0	5496	0.001828131265938282
0	5492	-0.0007318947464227676
0	5486	-0.0010990621522068977
0	5496	0.0018340547103434801
0	5516	0.0036734542809426785
0	5512	-0.0007356457062996924
0	5516	0.0007368201040662825
0	5536	0.0036894469521939754
0	5546	0.0018473588861525059
0	5544	-0.00036987263592891395
0	5562	0.003330989507958293
0	5646	0.015545384027063847
0	5628	-0.003328156191855669
0	5604	-0.004429025109857321
0	5572	-0.005893330555409193
0	5504	-0.01249601785093546
0	5424	-0.01467315573245287
0	5352	-0.013187618926167488
0	5366	0.002561756642535329
0	5362	-0.0007312970701605082
0	5404	0.0076737552881240845
0	5410	0.0010953036835417151
0	5512	0.018607480451464653
0	6256	0.1355932205915451
0	5850	-0.07360495626926422
1	4504	-0.2434084564447403
0	4606	0.018548376858234406
0	5068	0.08444937318563461
0	5472	0.07402431219816208
0	5676	0.03737906739115715
0	5716	0.007320733740925789
0	5728	0.0021932763047516346
0	5732	0.0007300424622371793
0	5744	0.0021868546027690172
0	5772	0.005094985011965036
0	5754	-0.0032702696043998003
0	5722	-0.0058053042739629745
0	5718	-0.000724760175216943
0	5724	0.0010859466856345534
0	5742	0.0032543449196964502
0	5746	0.0007223259308375418
0	5748	0.0003607633989304304
0	5784	0.0064897602424025536
0	5794	0.0018010230269283056
0	5806	0.0021587652154266834
0	5772	-0.006107931025326252
0	5732	-0.007174286991357803
0	5678	-0.00966748595237732
0	5552	-0.02251366898417473
0	5428	-0.022131791338324547
0	5340	-0.015700267627835274
0	5252	-0.015706244856119156
0	5208	-0.007860511541366577
0	5106	-0.018255142495036125
0	5216	0.019822916015982628
0	5128	-0.01591895893216133
0	5154	0.004685698077082634
0	4884	-0.04849950596690178
0	5580	0.12515884637832642
0	5338	-0.043489720672369
0	5302	-0.0064826710149645805
0	5364	0.011192413046956062
0	5492	0.023157639428973198
0	5446	-0.00833433959633112
0	5564	0.02141794003546238
0	5634	0.012721567414700985
0	5538	-0.017459413036704063
0	5644	0.01929963007569313
0	5340	-0.05537474900484085
0	5332	-0.0014606358017772436
0	5432	0.01830362156033516
0	5426	-0.00110032525844872
0	5514	0.01616992987692356
0	5450	-0.011779429391026497
0	5516	0.012173228897154331
0	5446	-0.012934060767292976
0	5286	-0.02962304651737213
0	5344	0.010767992585897446
0	5324	-0.003720791544765234
0	5182	-0.026455026119947433
0	5308	0.023510094732046127
0	5308	0.0
0	5206	-0.01902914047241211
0	5196	-0.0018656252650544047
0	5080	-0.021629147231578827
0	5040	-0.007464636117219925
0	4910	-0.024273356422781944
0	4934	0.004488050471991301
0	4992	0.010842742398381233
0	5032	0.0075052534230053425
0	5066	0.006391698494553566
0	5138	0.013555408455431461
0	5724	0.11048265546560287
0	6278	0.10429739952087402
0	5480	-0.14945311844348907
1	4008	-0.2758276164531708
0	4690	0.129106342792511
0	5106	0.07917474955320358
0	5580	0.09052251279354095
0	5686	0.020212549716234207
0	5700	0.0026635886169970036
0	5732	0.006077872589230537
0	5850	0.022368818521499634
0	5664	-0.035184625536203384
0	5584	-0.015112779103219509
0	5688	0.01963820494711399
0	5736	0.00905000139027834
0	5648	-0.016544878482818604
0	5732	0.015762807801365852
0	5756	0.0044921948574483395
0	5814	0.010817397385835648
0	5834	0.0037184397224336863
0	5846	0.00222381460480392
0	5906	0.011075287126004696
0	5952	0.008454120717942715
0	5882	-0.012796606868505478
0	5776	-0.01927880384027958
0	5828	0.009408132173120975
0	5712	-0.02087482437491417
0	5446	-0.04766228049993515
0	5258	-0.03360303118824959
0	5152	-0.018924741074442863
0	5070	-0.014638674445450306
0	5116	0.008244023658335209
0	5086	-0.0054141199216246605
0	5152	0.01193936262279749
0	5072	-0.014372806064784527
0	5126	0.009679500944912434
0	5182	0.010036800988018513
0	5192	0.0017965576844289899
0	5052	-0.02522643655538559
0	5084	0.00578857259824872
0	5174	0.0163442213088274
0	5200	0.004741064738482237
0	5282	0.014994880184531212
0	5300	0.003297629300504923
0	5282	-0.0033054614905267954
0	5384	0.018783146515488625
0	5338	-0.008484579622745514
0	5344	0.0011093716602772474
0	5322	-0.004078051541000605
0	5314	-0.0014874496264383197
0	5340	0.0048498413525521755
0	5360	0.0037424215115606785
0	5316	-0.008261462673544884
0	5328	0.0022621306125074625
0	5336	0.0015133554115891457
0	5328	-0.0015175658045336604
0	5354	0.004947731737047434
0	5312	-0.0080106807872653
0	5360	0.009162870235741138
0	5428	0.012972313910722733
0	5560	0.02513743005692959
0	5532	-0.005315647926181555
0	5630	0.01855592057108879
0	5492	-0.02604035474359989
0	5414	-0.014687052927911282
0	5304	-0.020668143406510353
0	5172	-0.024774154648184776
0	5182	0.001876947353594005
0	5240	0.010886975564062595
0	5280	0.007499437313526869
0	5182	-0.01835114322602749
0	5386	0.03819843381643295
0	6272	0.16570866107940674
0	6488	0.04015068709850311
1	4960	-0.28195348381996155
0	4166	-0.14680323004722595
0	4584	0.07786884903907776
0	5176	0.11080194264650345
0	5550	0.07007332146167755
0	5578	0.005238671321421862
0	5722	0.026897454634308815
0	5802	0.014907573349773884
0	5774	-0.005203364882618189
0	5554	-0.04076791927218437
0	5132	-0.07809127122163773
0	4580	-0.1022765189409256
0	4522	-0.0107963215559721
0	4314	-0.03891875594854355
0	4226	-0.016568759456276894
0	4220	-0.0011377858463674784
0	4110	-0.021019911393523216
0	4088	-0.004243172705173492
0	4126	0.00739779369905591
0	4190	0.012582243420183659
0	4384	0.038468148559331894
0	4504	0.023957835510373116
0	4606	0.020473157986998558
0	4776	0.034251634031534195
0	4900	0.02505185455083847
0	4956	0.011339705437421799
0	4982	0.0052764019928872585
0	5038	0.01137995533645153
0	5030	-0.001629549078643322
0	5108	0.01602322794497013
0	5310	0.0418919138610363
0	5314	0.0008275405270978808
0	5330	0.0032841621432453394
0	5446	0.023689262568950653
0	5528	0.01671513542532921
0	5584	0.011416921392083168
0	5628	0.008970072492957115
0	5794	0.03386326879262924
0	5956	0.0330490842461586
0	6174	0.04441848397254944
0	6036	-0.02800021693110466
0	5962	-0.014923366717994213
0	6276	0.06274060159921646
0	7246	0.1915784478187561
1	5946	-0.25189244747161865
0	6354	0.07818688452243805
0	6316	-0.007184179965406656
0	6508	0.03580130264163017
0	7178	0.123080313205719
0	7178	0.0
0	7480	0.05349930375814438
0	6736	-0.12943331897258759
0	7796	0.18205134570598602
0	7544	-0.04250390827655792
0	7044	-0.08304084837436676
0	7438	0.06466861069202423
0	6754	-0.11076325178146362
0	6898	0.023097652941942215
0	7332	0.06892827898263931
0	6756	-0.09037940204143524
0	7006	0.03889194130897522
0	6854	-0.023440150544047356
0	6694	-0.024480054154992104
0	6904	0.03190810605883598
0	6866	-0.005731523502618074
0	6842	-0.0035957209765911102
0	7284	0.0658077597618103
0	7586	0.04459714889526367
0	6606	-0.14345382153987885
1	5342	-0.18444117903709412
0	5882	0.07911624014377594
0	6174	0.04281357675790787
0	6274	0.01464700698852539
0	5994	-0.04101202264428139
0	5926	-0.01002131961286068
0	6028	0.01503345649689436
0	5948	-0.011809861287474632
0	6166	0.03224025294184685
0	6056	-0.01629549078643322
0	6604	0.08163346350193024
0	5932	-0.10039141029119492
0	5506	-0.06413537263870239
0	5758	0.03817487508058548
0	5838	0.01224502269178629
0	5836	-0.0003088135563302785
0	5990	0.023927409201860428
0	5894	-0.015028491616249084
0	5872	-0.0034595546312630177
0	6106	0.03699604794383049
0	5550	-0.08847679942846298
0	5544	-0.0009609327535144985
0	5544	0.0
0	5430	-0.01853196509182453
0	5216	-0.035027991980314255
0	5294	0.01288588810712099
0	4922	-0.06199242174625397
0	4874	-0.008085254579782486
0	4850	-0.004098081029951572
0	4886	0.006244362331926823
0	4830	-0.009811021387577057
0	4830	0.0
0	4780	-0.008840586058795452
0	4788	0.0014262114418670535
0	4882	0.016907285898923874
0	4884	0.0003621439100243151
0	4992	0.019679540768265724
0	4956	-0.006601386237889528
0	4908	-0.008855544030666351
0	4892	-0.002974862465634942
0	4756	-0.025470072403550148
0	4762	0.0011367942206561565
0	4700	-0.011834319680929184
0	4712	0.002302320208400488
0	4650	-0.011975430883467197
0	4552	-0.019074806943535805
0	4606	0.010598903521895409
0	4774	0.03327567130327225
0	4714	-0.011972702108323574
0	4698	-0.0032175034284591675
0	4858	0.032481592148542404
0	4926	0.013869626447558403
0	4938	0.002457908121868968
0	4908	-0.006170300301164389
0	4990	0.016926061362028122
0	4938	-0.010750316083431244
0	5070	0.027356378734111786
0	5182	0.02318776585161686
0	5248	0.013635236769914627
0	5344	0.019778862595558167
0	5440	0.019716845825314522
0	5758	0.06504043191671371
0	6444	0.13942521810531616
0	5782	-0.13304750621318817
1	4334	-0.28909119963645935
0	4738	0.08095327019691467
0	4856	0.023667847737669945
0	5130	0.055007562041282654
0	5284	0.030880702659487724
0	5280	-0.0008000853122211993
0	5174	-0.021147554740309715
0	5182	0.0015916174743324518
0	5134	-0.0095231793820858
0	5192	0.011474242433905602
0	5166	-0.005127396434545517
0	5158	-0.0015723269898444414
0	5192	0.006655964534729719
0	5344	0.029642727226018906
0	5430	0.016709627583622932
0	5594	0.03171778842806816
0	5664	0.013460329733788967
0	5772	0.020660629495978355
0	5836	0.01217764150351286
0	5834	-0.0003783961001317948
0	5836	0.0003761991101782769
0	5840	0.0007484283414669335
0	5718	-0.02269936352968216
0	5598	-0.0222378708422184
0	5478	-0.022180872038006783
0	5336	-0.026210222393274307
0	5268	-0.012551992200314999
0	5246	-0.004065240733325481
0	5240	-0.0011122096329927444
0	5202	-0.0070967902429401875
0	5258	0.01049632579088211
0	5322	0.01192694716155529
0	5332	0.0018568492960184813
0	5324	-0.0014811157016083598
0	5424	0.01849180832505226
0	5448	0.004434207454323769
0	5466	0.0033222180791199207
0	5518	0.009580309502780437
0	5538	0.0036771465092897415
0	5552	0.002567645162343979
0	5564	0.0021960055455565453
0	5534	-0.005476717837154865
0	5578	0.008014182560145855
0	5558	-0.003634293098002672
0	5502	-0.01016284804791212
0	5520	0.003265207400545478
0	5566	0.008348153904080391
0	5592	0.004721321165561676
0	5614	0.003999321721494198
0	5648	0.006189095322042704
0	5608	-0.007289514876902103
0	5702	0.017154119908809662
0	5802	0.018264396116137505
0	5848	0.008397327736020088
0	5950	0.018591878935694695
0	6156	0.03744092956185341
0	6158	0.0003617072361521423
0	6142	-0.0028782153967767954
0	6078	-0.011451337486505508
0	6064	-0.0024925225879997015
0	6016	-0.008502297103404999
0	6002	-0.0024687875993549824
0	6000	-0.00035127982846461236
0	6038	0.006648315582424402
0	6068	0.005226905923336744
0	6104	0.00624891510233283
0	6414	0.053606629371643066
0	6930	0.0887441635131836
0	6518	-0.0702887773513794
1	5326	-0.2022327035665512
0	5162	-0.02785957045853138
0	5612	0.07661835104227066
0	6026	0.07045768946409225
0	6236	0.035648807883262634
0	6300	0.010822877287864685
0	6234	-0.011111111380159855
0	6254	0.0033535666298121214
0	6222	-0.005345152225345373
0	6204	-0.002996138297021389
0	6114	-0.014931811951100826
0	6086	-0.004633511416614056
0	6016	-0.011553315445780754
0	5918	-0.016146747395396233
0	5878	-0.006586313247680664
0	5846	-0.005268183071166277
0	5882	0.005930090788751841
0	5842	-0.00659891776740551
0	5824	-0.0029746820218861103
0	5778	-0.007615305483341217
0	5718	-0.009949478320777416
0	5642	-0.012626822106540203
0	5534	-0.01798062026500702
0	5384	-0.025038113817572594
0	5228	-0.026129193603992462
0	5010	-0.03667975217103958
0	4818	-0.032497938722372055
0	4680	-0.023528609424829483
0	4660	-0.0034438821021467447
0	4642	-0.003140411339700222
0	4702	0.010583503171801567
0	4750	0.008497982285916805
0	4750	0.0
0	4840	0.016054419800639153
0	4872	0.005748778581619263
0	4854	-0.003260318422690034
0	4904	0.009136202745139599
0	4892	-0.0022105961106717587
0	4976	0.015604681335389614
0	4986	0.0018721449887380004
0	5000	0.002641077619045973
0	5066	0.012538628652691841
0	5166	0.019121434539556503
0	5294	0.024608759209513664
0	5330	0.006949001923203468
0	5344	0.0027119519654661417
0	5244	-0.01943407952785492
0	5360	0.02263708971440792
0	5650	0.056770727038383484
0	5540	-0.02155820094048977
0	5430	-0.02159177139401436
0	5638	0.04090515896677971
0	5696	0.011406545527279377
0	5778	0.016109386458992958
0	5830	0.0101894186809659
0	5654	-0.03435218706727028
0	5526	-0.02487916685640812
0	5450	-0.014704554341733456
0	5350	-0.019252490252256393
0	5356	0.00115005683619529
0	5482	0.024041520431637764
0	5530	0.009113462641835213
0	5418	-0.021160289645195007
0	5780	0.06810656189918518
0	6552	0.14439262449741364
0	5892	-0.12216491252183914
1	4382	-0.2777198851108551
0	4452	0.01291576400399208
0	4968	0.09546598047018051
0	5542	0.1062019020318985
0	5856	0.05789797008037567
0	5692	-0.03008143976330757
0	5672	-0.0036544809117913246
0	5652	-0.0036432526540011168
0	5776	0.022539172321558
0	5742	-0.006163440179079771
0	5646	-0.017360901460051537
0	5678	0.005772977601736784
0	5628	-0.00900306086987257
0	5614	-0.002521190093830228
0	5684	0.012600352987647057
0	5706	0.0039540845900774
0	5868	0.029104584828019142
0	5844	-0.004307353403419256
0	5784	-0.01076413318514824
0	5756	-0.005024645011872053
0	5770	0.002510790480300784
0	5628	-0.02542949467897415
0	5634	0.0010733453091233969
0	5686	0.009286598302423954
0	5482	-0.03636061027646065
0	5320	-0.028874602168798447
0	5210	-0.019630704075098038
0	5180	-0.005360461305826902
0	5260	0.01434583030641079
0	5208	-0.009397363290190697
0	5310	0.018509557470679283
0	5372	0.011188104748725891
0	5354	-0.0032302832696586847
0	5368	0.0025066544767469168
0	5288	-0.014338630251586437
0	5432	0.025897417217493057
0	5470	0.006844709161669016
0	5584	0.02055906131863594
0	5604	0.0036083280574530363
0	5668	0.01155860535800457
0	5670	0.00036136741982772946
0	5648	-0.003974467050284147
0	5650	0.0003613804583437741
0	5610	-0.007226651534438133
0	5550	-0.010840239003300667
0	5566	0.0028930651023983955
0	5598	0.0057910168543457985
0	5596	-0.0003625290119089186
0	5580	-0.0029045843984931707
0	5636	0.010178610682487488
0	5684	0.008730870671570301
0	5706	0.0040037366561591625
0	5722	0.0029104314744472504
0	5540	-0.033088501542806625
0	5618	0.014193344861268997
0	5724	0.019272493198513985
0	5816	0.0166862141340971
0	5784	-0.005782714579254389
0	5690	-0.0169251449406147
0	5630	-0.010775474831461906
0	5500	-0.023288032039999962
0	5540	0.007157427724450827
0	5474	-0.011797932907938957
0	5568	0.01679111085832119
0	5536	-0.0057093240320682526
0	5600	0.011401831172406673
0	6254	0.11639633774757385
0	6470	0.03826485574245453
1	5408	-0.18715634942054749
0	4498	-0.16055423021316528
0	4934	0.07745786756277084
0	5420	0.0867186114192009
0	5690	0.04824242740869522
0	5780	0.01607697829604149
0	5762	-0.0032121441327035427
0	5768	0.0010693662334233522
0	5776	0.0014241125900298357
0	5818	0.007468702271580696
0	5802	-0.0028414807748049498
0	5762	-0.007094379048794508
0	5796	0.0060257334262132645
0	5724	-0.01275193877518177
0	5734	0.0017709145322442055
0	5706	-0.004958209116011858
0	5618	-0.015567690134048462
0	5718	0.01769055612385273
0	5784	0.011676181107759476
0	5830	0.008139479905366898
0	5826	-0.0007075889152474701
0	5732	-0.016615014523267746
0	5706	-0.004592882469296455
0	5632	-0.013056213036179543
0	5622	-0.0017633988754823804
0	5500	-0.02149476855993271
0	5258	-0.04265419766306877
0	5338	0.014123628847301006
0	5292	-0.008133627474308014
0	5240	-0.009246964938938618
0	5216	-0.004299174528568983
0	5168	-0.008608218282461166
0	5298	0.02322092093527317
0	5328	0.005347085185348988
0	5218	-0.01961670070886612
0	5288	0.012518479488790035
0	5348	0.010761688463389874
0	5434	0.015463361516594887
0	5408	-0.004684347193688154
0	5350	-0.010472842492163181
0	5370	0.003621526528149843
0	5462	0.016702573746442795
0	5546	0.015277912840247154
0	5536	-0.0018215600866824389
0	5534	-0.00036472835927270353
0	5520	-0.0025562061928212643
0	5506	-0.0025591030716896057
0	5462	-0.008048388175666332
0	5422	-0.007328154984861612
0	5374	-0.008813268505036831
0	5368	-0.0011047418229281902
0	5374	0.0011078559327870607
0	5436	0.011473124846816063
0	5404	-0.005931491497904062
0	5322	-0.015220887959003448
0	5594	0.05058269202709198
0	5822	0.04237550497055054
0	5812	-0.0018521033925935626
0	5794	-0.0033240586053580046
0	5674	-0.022092124447226524
0	5522	-0.02790902741253376
0	5534	0.0021992253605276346
0	5570	0.0065829576924443245
0	5534	-0.006572061218321323
0	5672	0.025161361321806908
0	5586	-0.015637122094631195
0	6198	0.11107750236988068
0	6684	0.08775731176137924
1	5814	-0.1559232920408249
0	4126	-0.30179503560066223
0	4760	0.11418485641479492
0	5114	0.06399054825305939
0	5674	0.10144069790840149
0	5786	0.020272471010684967
0	5672	-0.020603401586413383
0	5624	-0.00866791047155857
0	5692	0.01227185782045126
0	5766	0.013339742086827755
0	5702	-0.011516038328409195
0	5602	-0.01796364225447178
0	5580	-0.0039466130547225475
0	5612	0.005733259953558445
0	5546	-0.011808065697550774
0	5534	-0.0021455134265124798
0	5608	0.013220423832535744
0	5660	0.00927423220127821
0	5722	0.011053401045501232
0	5712	-0.0017838667845353484
0	5746	0.006068755406886339
0	5672	-0.013212241232395172
0	5718	0.008213113062083721
0	5648	-0.012483651749789715
0	5576	-0.012831632047891617
0	5446	-0.02316739782691002
0	5278	-0.029955068603157997
0	5254	-0.004289339762181044
0	5216	-0.0068049137480556965
0	5206	-0.0018013257067650557
0	5110	-0.017447566613554955
0	5202	0.01679220236837864
0	5276	0.013418924063444138
0	5268	-0.001446183887310326
0	5308	0.0072242156602442265
0	5434	0.022806530818343163
0	5446	0.002176673384383321
0	5418	-0.005085853859782219
0	5382	-0.006547120865434408
0	5414	0.005830620415508747
0	5408	-0.001095583662390709
0	5368	-0.0073169837705791
0	5358	-0.001831859815865755
0	5350	-0.0014674770645797253
0	5360	0.001837289659306407
0	5534	0.032005295157432556
0	5458	-0.013979325070977211
0	5390	-0.012519330717623234
0	5476	0.01585954986512661
0	5534	0.010712174698710442
0	5506	-0.005177068058401346
0	5546	0.00740676699206233
0	5656	0.020384464412927628
0	5582	-0.013718437403440475
0	5602	0.003709198907017708
0	5808	0.03819860890507698
0	5926	0.021831907331943512
0	5914	-0.002211356535553932
0	5892	-0.004037783946841955
0	5620	-0.04971608147025108
0	5636	0.002917117439210415
0	5638	0.0003634777676779777
0	5690	0.009425526484847069
0	5660	-0.0054242354817688465
0	5612	-0.00865832157433033
0	5486	-0.02268662489950657
0	6174	0.12383752316236496
0	6512	0.06057420372962952
1	5308	-0.2143722027540207
0	3972	-0.23797932267189026
0	4658	0.12325124442577362
0	5176	0.09348718076944351
0	5468	0.052760276943445206
0	5500	0.005778120364993811
0	5502	0.00036080676363781095
0	5594	0.016582950949668884
0	5392	-0.03639727085828781
0	5504	0.020188668742775917
0	5608	0.018733788281679153
0	5546	-0.011159375309944153
0	5622	0.013678248971700668
0	5696	0.013309033587574959
0	5712	0.0028750435449182987
0	5816	0.018681516870856285
0	5964	0.02654803916811943
0	5884	-0.01431929599493742
0	5814	-0.012523706071078777
0	5800	-0.0025064153596758842
0	5752	-0.00859927386045456
0	5784	0.005737646017223597
0	5822	0.00680678291246295
0	5738	-0.01502988114953041
0	5618	-0.02145846001803875
0	5502	-0.020752085372805595
0	5354	-0.026501767337322235
0	5248	-0.0190102718770504
0	5194	-0.009698275476694107
0	5188	-0.0010839455062523484
0	5102	-0.015661422163248062
0	5160	0.010575578548014164
0	5164	0.0007241217535920441
0	5278	0.020574646070599556
0	5360	0.014790230430662632
0	5354	-0.00108291523065418
0	5342	-0.0021677345503121614
0	5320	-0.003978012595325708
0	5296	-0.004346828907728195
0	5340	0.00797380693256855
0	5336	-0.000725610414519906
0	5304	-0.005814446602016687
0	5364	0.010918090119957924
0	5180	-0.03353462368249893
0	5252	0.013163507916033268
0	5314	0.011367108672857285
0	5276	-0.006988377310335636
0	5334	0.01071164757013321
0	5356	0.004076842218637466
0	5320	-0.006690123118460178
0	5324	0.0007455638842657208
0	5364	0.0074755181558430195
0	5480	0.021735873073339462
0	5644	0.030795808881521225
0	5542	-0.019164767116308212
0	5590	0.009023008868098259
0	5412	-0.03344188630580902
0	5350	-0.011644067242741585
0	5326	-0.0045045046135783195
0	5362	0.006751181557774544
0	5394	0.00599452992901206
0	5420	0.004861691500991583
0	5452	0.005973938386887312
0	5920	0.08721254765987396
0	6700	0.14477689564228058
0	6220	-0.08836090564727783
1	4382	-0.3365601897239685
0	4640	0.04752139747142792
0	5152	0.09470140188932419
0	5668	0.0955260768532753
0	5870	0.037320327013731
0	5792	-0.01436358317732811
0	5788	-0.000734394125174731
0	5942	0.028200997039675713
0	5942	0.0
0	5922	-0.003630290972068906
0	5894	-0.0050637791864573956
0	5806	-0.015855664387345314
0	5872	0.011858133599162102
0	5872	0.0
0	5902	0.005355804227292538
0	5846	-0.009963231161236763
0	5934	0.015611878596246243
0	5996	0.010969826951622963
0	5994	-0.00035313228727318347
0	5988	-0.0010565860429778695
0	5890	-0.017217349261045456
0	5916	0.00455511687323451
0	5826	-0.015715764835476875
0	5696	-0.022634677588939667
0	5552	-0.025023749098181725
0	5340	-0.03680683299899101
0	5358	0.0031265560537576675
0	5312	-0.007994438521564007
0	5230	-0.014301327988505363
0	5280	0.008795486763119698
0	5244	-0.0063678496517241
0	5320	0.013375258073210716
0	5326	0.0010517459595575929
0	5374	0.008405420929193497
0	5456	0.014383946545422077
0	5436	-0.0035167927853763103
0	5432	-0.0007048292318359017
0	5550	0.020836031064391136
0	5572	0.0038936673663556576
0	5516	-0.009932834655046463
0	5428	-0.015646297484636307
0	5494	0.011767223477363586
0	5618	0.022149186581373215
0	5576	-0.007513506803661585
0	5508	-0.012186233885586262
0	5508	0.0
0	5548	0.007199855986982584
0	5600	0.00938154011964798
0	5550	-0.009042245335876942
0	5576	0.004714586306363344
0	5716	0.025449609383940697
0	5894	0.032391514629125595
0	5810	-0.015287922695279121
0	5704	-0.019293775781989098
0	5462	-0.044045913964509964
0	5426	-0.006555864587426186
0	5452	0.004732320550829172
0	5422	-0.0054572573862969875
0	5510	0.01599728688597679
0	5458	-0.00943692959845066
0	5500	0.00761393690481782
0	5794	0.05321523919701576
0	6624	0.14980508387088776
0	6458	-0.029728859663009644
1	4902	-0.27687162160873413
0	4360	-0.09676036983728409
0	4802	0.0794164165854454
0	5500	0.12588824331760406
0	5756	0.04618493467569351
0	5822	0.011893891729414463
0	5808	-0.0025183178950101137
0	5756	-0.009332488290965557
0	5740	-0.0028670411556959152
0	5758	0.0032230722717940807
0	5706	-0.00930099468678236
0	5802	0.017150821164250374
0	5696	-0.018904265016317368
0	5680	-0.002850965829566121
0	5740	0.010686044581234455
0	5774	0.006048602517694235
0	5804	0.0053307428024709225
0	5824	0.003551977453753352
0	5766	-0.010305004194378853
0	5758	-0.0014217504067346454
0	5754	-0.0007106479024514556
0	5732	-0.0039018162060528994
0	5670	-0.010976171121001244
0	5590	-0.01414460502564907
0	5400	-0.03356020897626877
0	5266	-0.023684117943048477
0	5196	-0.012386311776936054
0	5200	0.0007090606377460063
0	5006	-0.03451056405901909
0	5088	0.014728246256709099
0	5158	0.012676872313022614
0	5258	0.018081875517964363
0	5238	-0.0035969065502285957
0	5240	0.00035875296453014016
0	5314	0.013294527307152748
0	5294	-0.0036026514135301113
0	5396	0.018431957811117172
0	5366	-0.005434651393443346
0	5404	0.006900141481310129
0	5444	0.007278108969330788
0	5430	-0.00255219847895205
0	5498	0.012417218647897243
0	5454	-0.00804956629872322
0	5434	-0.003664301009848714
0	5382	-0.009541518054902554
0	5474	0.01691819354891777
0	5528	0.00994853861629963
0	5456	-0.013287237845361233
0	5448	-0.0014797094045206904
0	5584	0.025204477831721306
0	5694	0.020407909527420998
0	5586	-0.020044295117259026
0	5622	0.006687472108751535
0	5486	-0.02527129463851452
0	5412	-0.013759421184659004
0	5334	-0.014502095058560371
0	5370	0.006690455134958029
0	5424	0.010024876333773136
0	5396	-0.005190888419747353
0	5422	0.004808521829545498
0	5934	0.09449632465839386
0	6690	0.13886676728725433
1	5236	-0.2647583782672882
0	4392	-0.1536855399608612
0	4956	0.10323115438222885
0	5372	0.07630880922079086
0	5566	0.03556935489177704
0	5656	0.01648412086069584
0	5740	0.015357987023890018
0	5746	0.0010947573464363813
0	5794	0.008742001838982105
0	5748	-0.008359279483556747
0	5728	-0.0036289736162871122
0	5704	-0.0043475632555782795
0	5710	0.0010851217666640878
0	5746	0.006497882306575775
0	5660	-0.015497356653213501
0	5794	0.024127913638949394
0	5766	-0.00503144646063447
0	5726	-0.007174115628004074
0	5814	0.01576966606080532
0	5822	0.001432579243555665
0	5758	-0.011444511823356152
0	5732	-0.004645566921681166
0	5708	-0.004281942266970873
0	5562	-0.026002708822488785
0	5458	-0.018497439101338387
0	5350	-0.019198860973119736
0	5270	-0.014227618463337421
0	5168	-0.018153773620724678
0	5170	0.0003564935177564621
0	5164	-0.0010743574239313602
0	5206	0.007589629851281643
0	5128	-0.014097574166953564
0	5234	0.019073667004704475
0	5226	-0.001437125843949616
0	5324	0.01762019470334053
0	5324	0.0
0	5316	-0.001443348592147231
0	5362	0.00832047127187252
0	5326	-0.006526784040033817
0	5392	0.011999709531664848
0	5442	0.0091103445738554
0	5386	-0.01022134069353342
0	5440	0.009875399060547352
0	5360	-0.014654341153800488
0	5408	0.008813376538455486
0	5412	0.0007355825509876013
0	5434	0.004055199678987265
0	5402	-0.005910529289394617
0	5464	0.011474540457129478
0	5590	0.02336968667805195
0	5564	-0.004829242825508118
0	5478	-0.01599285937845707
0	5444	-0.00633272947743535
0	5326	-0.022014377638697624
0	5268	-0.010836530476808548
0	5318	0.009352903813123703
0	5286	-0.00598705280572176
0	5346	0.011224604211747646
0	5266	-0.01494954526424408
0	5586	0.05976244434714317
0	6368	0.14566181600093842
0	5880	-0.09024780988693237
1	4286	-0.2934246361255646
0	4706	0.07776626199483871
0	5172	0.08656132221221924
0	5594	0.07846199721097946
0	5690	0.0178193561732769
0	5710	0.003703795140609145
0	5618	-0.017000935971736908
0	5704	0.01586364582180977
0	5696	-0.0014728624373674393
0	5742	0.00845577847212553
0	5642	-0.018342118710279465
0	5778	0.024914510548114777
0	5722	-0.010232795961201191
0	5780	0.01057802140712738
0	5738	-0.007642848417162895
0	5736	-0.0003632752923294902
0	5784	0.008701011538505554
0	5792	0.0014473700430244207
0	5830	0.006866642739623785
0	5818	-0.0021649447735399008
0	5810	-0.0014403513632714748
0	5694	-0.020839322358369827
0	5694	0.0
0	5658	-0.006436770781874657
0	5514	-0.025695012882351875
0	5444	-0.012473716400563717
0	5354	-0.016028303653001785
0	5386	0.005695977248251438
0	5332	-0.009623381309211254
0	5294	-0.006813943851739168
0	5336	0.007557672448456287
0	5396	0.010729102417826653
0	5380	-0.002849374897778034
0	5450	0.012450641952455044
0	5522	0.012817317619919777
0	5436	-0.015324851498007774
0	5474	0.006782484706491232
0	5488	0.002500952687114477
0	5566	0.013951824977993965
0	5538	-0.005012231878936291
0	5538	0.0
0	5470	-0.012194975279271603
0	5518	0.00862409733235836
0	5506	-0.0021586616057902575
0	5622	0.020901402458548546
0	5606	-0.0028849621303379536
0	5616	0.001804511295631528
0	5560	-0.010115484707057476
0	5658	0.01772686094045639
0	5692	0.006156520452350378
0	5678	-0.002536967396736145
0	5548	-0.02357635088264942
0	5490	-0.010527972131967545
0	5362	-0.023262858390808105
0	5384	0.004005486145615578
0	5364	-0.0036442263517528772
0	5416	0.00947959441691637
0	5428	0.0021867749746888876
0	5450	0.004008064977824688
0	6174	0.13180731236934662
0	6298	0.022454818710684776
1	5074	-0.22037112712860107
0	4406	-0.12050076574087143
0	4998	0.10742021352052689
0	5522	0.09534206986427307
0	5694	0.03129548579454422
0	5760	0.011989971622824669
0	5732	-0.005077860783785582
0	5774	0.007605572696775198
0	5770	-0.0007234319346025586
0	5748	-0.003973318729549646
0	5764	0.0028860378079116344
0	5814	0.009002952836453915
0	5688	-0.022647205740213394
0	5724	0.006463582627475262
0	5796	0.012919277884066105
0	5812	0.002867691917344928
0	5828	0.002864337991923094
0	5850	0.003932175692170858
0	5844	-0.0010711862705647945
0	5724	-0.021404363214969635
0	5820	0.01711880974471569
0	5690	-0.023144302889704704
0	5702	0.0021338644437491894
0	5572	-0.02307037077844143
0	5414	-0.028008224442601204
0	5304	-0.01949363760650158
0	5190	-0.020215872675180435
0	5138	-0.009234266355633736
0	5152	0.0024907486513257027
0	5152	0.0
0	5136	-0.0028836450073868036
0	5242	0.019097033888101578
0	5254	0.00215112860314548
0	5212	-0.007517451420426369
0	5258	0.008248655125498772
0	5332	0.01330424752086401
0	5352	0.00360498926602304
0	5354	0.0003613238804973662
0	5320	-0.006158081348985434
0	5404	0.015255529433488846
0	5406	0.00036398490192368627
0	5368	-0.006930765695869923
0	5452	0.015362294390797615
0	5428	-0.004395550582557917
0	5358	-0.012843565084040165
0	5456	0.018029287457466125
0	5452	-0.0007374993874691427
0	5424	-0.005174452904611826
0	5524	0.018528811633586884
0	5610	0.01596633344888687
0	5698	0.016349179670214653
0	5656	-0.007808916736394167
0	5524	-0.024547481909394264
0	5420	-0.01936180517077446
0	5304	-0.021616248413920403
0	5348	0.008204873651266098
0	5404	0.010439710691571236
0	5398	-0.0011170549551025033
0	5380	-0.003345766570419073
0	5442	0.011508049443364143
0	5804	0.0670718103647232
0	6530	0.1339615136384964
0	6096	-0.07945225387811661
1	4498	-0.29104992747306824
0	4578	0.014634146355092525
0	5100	0.09588538110256195
0	5544	0.08167369663715363
0	5734	0.034909360110759735
0	5752	0.003299523377791047
0	5820	0.012432049959897995
0	5806	-0.002553067170083523
0	5790	-0.0029107138980180025
0	5828	0.006895300466567278
0	5826	-0.0003620870702434331
0	5774	-0.009391706436872482
0	5828	0.009728561155498028
0	5804	-0.004314166959375143
0	5812	0.001435029087588191
0	5818	0.0010737807024270296
0	5868	0.00893250573426485
0	5932	0.01141606830060482
0	5864	-0.012112719938158989
0	5876	0.0021349021699279547
0	5822	-0.009587046690285206
0	5764	-0.010272759012877941
0	5798	0.0060056522488594055
0	5610	-0.03311996906995773
0	5498	-0.01970720663666725
0	5332	-0.029191775247454643
0	5308	-0.004221685696393251
0	5254	-0.009506260976195335
0	5250	-0.000706447521224618
0	5250	0.0
0	5312	0.011088721454143524
0	5258	-0.009611277841031551
0	5308	0.008863571099936962
0	5422	0.02018413506448269
0	5424	0.00035436279722489417
0	5498	0.013135472312569618
0	5422	-0.013510790653526783
0	5440	0.0032074889168143272
0	5484	0.00785761047154665
0	5520	0.00644068606197834
0	5460	-0.010754229500889778
0	5472	0.002155559603124857
0	5528	0.010077501647174358
0	5490	-0.00685063237324357
0	5556	0.011920959688723087
0	5478	-0.014110156334936619
0	5568	0.016314396634697914
0	5474	-0.017070423811674118
0	5482	0.001456841011531651
0	5556	0.013507099822163582
0	5604	0.008778453804552555
0	5556	-0.008790135383605957
0	5742	0.034105077385902405
0	5710	-0.005869549233466387
0	5630	-0.014664906077086926
0	5532	-0.01795003190636635
0	5428	-0.019025782123208046
0	5346	-0.014990128576755524
0	5364	0.0032886723056435585
0	5366	0.0003651545266620815
0	5414	0.00875752605497837
0	5374	-0.007293414324522018
0	5844	0.08563724160194397
0	6590	0.13548527657985687
1	5540	-0.18935750424861908
0	4008	-0.2760891020298004
0	4578	0.10365018248558044
0	5206	0.11478426307439804
0	5612	0.07431360334157944
0	5678	0.012071109376847744
0	5764	0.0157138854265213
0	5788	0.00437716580927372
0	5684	-0.018931349739432335
0	5790	0.019277166575193405
0	5700	-0.016337694600224495
0	5676	-0.004352925810962915
0	5774	0.017753195017576218
0	5766	-0.001447439892217517
0	5744	-0.003973462153226137
0	5716	-0.005049169063568115
0	5788	0.012971104122698307
0	5802	0.0025193754117935896
0	5894	0.016531499102711678
0	5834	-0.010771606117486954
0	5832	-0.00035878727794624865
0	5746	-0.015409240499138832
0	5736	-0.0017894848715513945
0	5578	-0.028222013264894485
0	5558	-0.0035674788523465395
0	5382	-0.031357645988464355
0	5248	-0.02387230098247528
0	5236	-0.00213992758654058
0	5152	-0.014991790056228638
0	5166	0.0025089606642723083
0	5242	0.013736926019191742
0	5250	0.0014485929859802127
0	5276	0.004672897048294544
0	5314	0.006801179144531488
0	5294	-0.0035772628616541624
0	5310	0.002867246512323618
0	5418	0.019396550953388214
0	5468	0.008998524397611618
0	5394	-0.013343431986868382
0	5446	0.009392837062478065
0	5514	0.012308435514569283
0	5414	-0.01812097430229187
0	5472	0.010526824742555618
0	5518	0.008364143781363964
0	5474	-0.008012528531253338
0	5468	-0.0010944112436845899
0	5448	-0.003653546329587698
0	5480	0.0058578019961714745
0	5470	-0.0018341668182983994
0	5480	0.0018389340257272124
0	5494	0.002580106258392334
0	5546	0.009603191167116165
0	5664	0.021818719804286957
0	5744	0.014798920601606369
0	5716	-0.005174325313419104
0	5632	-0.015507882460951805
0	5490	-0.02617543749511242
0	5442	-0.0088348975405097
0	5412	-0.005514841061085463
0	5448	0.006607282906770706
0	5482	0.006229464430361986
0	5510	0.005122638773173094
0	5500	-0.0018266174010932446
0	6226	0.13243180513381958
0	6458	0.04208642244338989
1	5280	-0.21220383048057556
0	4220	-0.19098182022571564
0	4862	0.1165083721280098
0	5290	0.07795803248882294
0	5450	0.0291616041213274
0	5400	-0.00911277998238802
0	5278	-0.022250592708587646
0	5206	-0.013142363168299198
0	5118	-0.016088927164673805
0	5152	0.006231367122381926
0	5182	0.005509102251380682
0	5152	-0.005518763791769743
0	5152	0.0
0	5154	0.00036933075170964
0	5218	0.011841618455946445
0	5272	0.010007536970078945
0	5398	0.023382985964417458
0	5522	0.023032914847135544
0	5608	0.01598849892616272
0	5724	0.021584071218967438
0	5794	0.013024224899709225
0	5836	0.007806691341102123
0	5766	-0.012983320280909538
0	5670	-0.01777009852230549
0	5606	-0.011827904731035233
0	5512	-0.017355341464281082
0	5412	-0.01845972053706646
0	5382	-0.005541258025914431
0	5384	0.00036968576023355126
0	5448	0.011891637928783894
0	5502	0.01009672973304987
0	5588	0.016057759523391724
0	5664	0.014070773497223854
0	5736	0.013264554552733898
0	5890	0.02829391323029995
0	5980	0.016490966081619263
0	5984	0.0007303446182049811
0	5994	0.0018180495826527476
0	6016	0.003980699926614761
0	6016	0.0
0	5998	-0.003222687868401408
0	5982	-0.002850728575140238
0	5924	-0.010283201932907104
0	5918	-0.001058948109857738
0	5914	-0.0007028065156191587
0	5920	0.0010499299969524145
0	5960	0.00697317672893405
0	5916	-0.007645525503903627
0	5894	-0.003814058844000101
0	5906	0.00207696296274662
0	5878	-0.004841163754463196
0	5860	-0.003110670717433095
0	6016	0.026955418288707733
0	5952	-0.011042733676731586
0	6004	0.008957691490650177
0	5908	-0.01649956963956356
0	5814	-0.01611926034092903
0	5582	-0.03969249874353409
0	5596	0.002392508089542389
0	5606	0.0017068730667233467
0	5644	0.006480292417109013
0	5670	0.004430308006703854
0	5598	-0.012262833304703236
0	6382	0.13357867300510406
0	6512	0.022068560123443604
1	4974	-0.2601723074913025
0	4530	-0.07553675770759583
0	4910	0.06518606841564178
0	5336	0.07353279739618301
0	5698	0.0627310574054718
0	5676	-0.003819399978965521
0	5674	-0.0003478664148133248
0	5672	-0.0003484887129161507
0	5632	-0.006979990750551224
0	5646	0.002447067527100444
0	5586	-0.010503833182156086
0	5582	-0.0007016230374574661
0	5568	-0.002461120020598173
0	5546	-0.003875377355143428
0	5552	0.0010590852471068501
0	5596	0.0077828350476920605
0	5650	0.009567569009959698
0	5668	0.0031931500416249037
0	5664	-0.0007110520964488387
0	5632	-0.005698141176253557
0	5554	-0.013919954188168049
0	5522	-0.005722802132368088
0	5412	-0.01970643550157547
0	5324	-0.015781167894601822
0	5180	-0.025865783914923668
0	5050	-0.023410769179463387
0	4910	-0.025301814079284668
0	4886	-0.004357404075562954
0	4826	-0.010940653271973133
0	4856	0.0055225566029548645
0	4834	-0.00409145001322031
0	4872	0.007073189131915569
0	4888	0.0029718787409365177
0	4912	0.004458425100892782
0	4932	0.0037251347675919533
0	4994	0.011603099294006824
0	5024	0.0056383912451565266
0	5046	0.004151726607233286
0	5050	0.0007578436634503305
0	5094	0.008367033675312996
0	5066	-0.005343171302229166
0	5130	0.012253494001924992
0	5114	-0.003072235966101289
0	5152	0.007317824754863977
0	5168	0.0030890018679201603
0	5192	0.00464498158544302
0	5268	0.014747546054422855
0	5358	0.017507458105683327
0	5358	0.0
0	5428	0.013671519234776497
0	5538	0.021512385457754135
0	5592	0.010561727918684483
0	5552	-0.007819932885468006
0	5440	-0.021875854581594467
0	5314	-0.02459176443517208
0	5314	0.0
0	5356	0.008176084607839584
0	5356	0.0
0	5454	0.018964804708957672
0	5576	0.023513993248343468
0	6260	0.13122554123401642
0	6436	0.033460501581430435
1	5296	-0.21460573375225067
0	4448	-0.15922889113426208
0	4950	0.09453504532575607
0	5424	0.08925209194421768
0	5630	0.03868447616696358
0	5706	0.014218009077012539
0	5712	0.0011178734712302685
0	5704	-0.0014843953540548682
0	5700	-0.0007394079584628344
0	5744	0.00810183770954609
0	5754	0.0018344135023653507
0	5798	0.008039955981075764
0	5794	-0.0007280404679477215
0	5820	0.004714358132332563
0	5806	-0.0025289016775786877
0	5882	0.01368399616330862
0	5900	0.0032307859510183334
0	5916	0.002862527035176754
0	5852	-0.011416882276535034
0	5766	-0.015312844887375832
0	5654	-0.019921736791729927
0	5440	-0.03804174065589905
0	5312	-0.022753937169909477
0	5176	-0.02417634427547455
0	5114	-0.0110305892303586
0	5126	0.002138021169230342
0	5102	-0.004281891044229269
0	5138	0.006436310242861509
0	5170	0.005736137740314007
0	5160	-0.0018042941810563207
0	5218	0.010545838624238968
0	5252	0.006184966769069433
0	5280	0.0050687906332314014
0	5366	0.015537488274276257
0	5430	0.011566822417080402
0	5428	-0.0003618992632254958
0	5506	0.01413777656853199
0	5554	0.008711012080311775
0	5538	-0.0029063080437481403
0	5550	0.00218187109567225
0	5594	0.008009611628949642
0	5612	0.0032798433676362038
0	5618	0.0010945176472887397
0	5618	0.0
0	5646	0.005119516514241695
0	5738	0.01683768816292286
0	5666	-0.013188906945288181
0	5642	-0.004402592312544584
0	5706	0.01175994984805584
0	5852	0.02685139700770378
0	5844	-0.0014705341309309006
0	5670	-0.031946927309036255
0	5568	-0.018701184540987015
0	5448	-0.021967025473713875
0	5430	-0.003289594082161784
0	5484	0.009849820286035538
0	5568	0.01528866495937109
0	5592	0.004355875309556723
0	5728	0.024615682661533356
0	6436	0.12771637737751007
0	6646	0.0375935360789299
1	4514	-0.37843915820121765
0	4920	0.07238280773162842
0	5542	0.11112963408231735
0	5806	0.047118179500103
0	5834	0.004986228421330452
0	5820	-0.0024871202185750008
0	5868	0.008511442691087723
0	5856	-0.0021239188499748707
0	5882	0.004593207035213709
0	5874	-0.0014105367008596659
0	5846	-0.004928767681121826
0	5792	-0.009492446668446064
0	5840	0.00842913705855608
0	5780	-0.010522747412323952
0	5730	-0.008762091398239136
0	5710	-0.003505000378936529
0	5690	-0.003504099790006876
0	5642	-0.00840748194605112
0	5632	-0.0017522135749459267
0	5562	-0.012281276285648346
0	5446	-0.02038544788956642
0	5266	-0.03167415410280228
0	5152	-0.02009589597582817
0	5108	-0.0077698249369859695
0	5164	0.009907646104693413
0	5166	0.00035451355506666005
0	5248	0.01456966158002615
0	5308	0.010682492516934872
0	5312	0.0007139457738958299
0	5334	0.003953137435019016
0	5348	0.002535558072850108
0	5388	0.007208159659057856
0	5378	-0.001796988188289106
0	5398	0.003597510512918234
0	5418	0.0036063329316675663
0	5378	-0.007230745628476143
0	5414	0.006525048520416021
0	5468	0.009814493358135223
0	5470	0.00036435623769648373
0	5448	-0.004017971456050873
0	5424	-0.004394638352096081
0	5388	-0.00660898070782423
0	5332	-0.010306116193532944
0	5374	0.007753750775009394
0	5410	0.006662718020379543
0	5286	-0.022994758561253548
0	5228	-0.010783876292407513
0	5356	0.02386723831295967
0	5480	0.023162560537457466
0	5468	-0.0022436617873609066
0	5446	-0.00411579106003046
0	5386	-0.011224884539842606
0	5330	-0.010468725115060806
0	5280	-0.009336719289422035
0	5320	0.007461387664079666
0	5366	0.008572280406951904
0	5426	0.011167362332344055
0	5512	0.015988893806934357
0	5614	0.018939629197120667
0	6456	0.1560530811548233
0	6904	0.08245904743671417
1	6012	-0.16262929141521454
0	3960	-0.37270691990852356
0	4494	0.0978308692574501
0	5166	0.12379642575979233
0	5760	0.10959678888320923
0	5912	0.027979236096143723
0	5942	0.005505395121872425
0	5946	0.0007319304859265685
0	6054	0.0197049118578434
0	6074	0.0036356584168970585
0	6018	-0.010139906778931618
0	6012	-0.001082303118892014
0	5898	-0.020480023697018623
0	5860	-0.006805320270359516
0	5918	0.010359239764511585
0	5904	-0.0024911328218877316
0	5804	-0.01772274449467659
0	5858	0.009545020759105682
0	5894	0.0063492064364254475
0	5802	-0.01618521474301815
0	5800	-0.00035111946635879576
0	5720	-0.014010834507644176
0	5626	-0.01642533391714096
0	5516	-0.0191824771463871
0	5276	-0.041805051267147064
0	5098	-0.03102162294089794
0	5066	-0.005587567575275898
0	4990	-0.013305011205375195
0	5026	0.006325406953692436
0	5182	0.027641605585813522
0	5084	-0.017543021589517593
0	5264	0.03240129351615906
0	5194	-0.012502679601311684
0	5152	-0.007470474112778902
0	5314	0.028817078098654747
0	5278	-0.0064207748509943485
0	5470	0.0343736968934536
0	5424	-0.00825862679630518
0	5432	0.001440783846192062
0	5470	0.006869373843073845
0	5532	0.011248866096138954
0	5490	-0.007642663083970547
0	5560	0.012778230011463165
0	5622	0.011341187171638012
0	5446	-0.03224112465977669
0	5446	0.0
0	5276	-0.03131985664367676
0	5324	0.008872020989656448
0	5710	0.07158134132623672
0	5470	-0.04455721005797386
0	5588	0.021952399984002113
0	5512	-0.014157445169985294
0	5442	-0.013056616298854351
0	5620	0.03323913365602493
0	5824	0.03806964308023453
0	5942	0.02194586582481861
0	6240	0.055134136229753494
0	6620	0.06979990750551224
0	7684	0.19350849092006683
0	7060	-0.11168651282787323
1	5366	-0.2998407185077667
0	5748	0.06750229746103287
0	6330	0.10255144536495209
0	6636	0.05356142297387123
0	6760	0.021518314257264137
0	6798	0.006539621856063604
0	6960	0.027638448402285576
0	6854	-0.01793246529996395
0	6700	-0.02584441937506199
0	6620	-0.013331111520528793
0	6450	-0.028148801997303963
0	6330	-0.0197695754468441
0	6336	0.0009839399717748165
0	6346	0.0016329730860888958
0	6214	-0.021470630541443825
0	5936	-0.04503094032406807
0	6138	0.032633982598781586
0	5994	-0.023156337440013885
0	5994	0.0
0	6174	0.02879815734922886
0	6348	0.027734093368053436
0	6262	-0.013652526773512363
0	6168	-0.01486353948712349
0	5916	-0.03969504311680794
0	6110	0.030511461198329926
0	6084	-0.004083042964339256
0	5786	-0.04676319286227226
0	5692	-0.014785919338464737
0	5792	0.015806611627340317
0	5490	-0.048216626048088074
0	5628	0.022218404337763786
0	5558	-0.011254381388425827
0	5302	-0.04120083153247833
0	5736	0.07023562490940094
0	5498	-0.038704220205545425
0	5456	-0.0068772039376199245
0	5582	0.02078384906053543
0	5510	-0.011967156082391739
0	5268	-0.04052470251917839
0	5464	0.03308612480759621
0	5328	-0.02310802973806858
0	5606	0.04753762111067772
0	5444	-0.027816571295261383
0	5590	0.02519790083169937
0	5506	-0.014560751616954803
0	5694	0.03272220864892006
0	5704	0.001742990338243544
0	5646	-0.01013489905744791
0	5510	-0.023812858387827873
0	5512	0.0003511811373755336
0	6134	0.1096421629190445
0	6016	-0.020826470106840134
0	5780	-0.04171331226825714
0	5602	-0.03153381869196892
0	5810	0.036916960030794144
0	5298	-0.09103409200906754
0	5862	0.10074906051158905
0	5714	-0.026425739750266075
0	5620	-0.016781717538833618
0	5528	-0.01644148863852024
0	5696	0.030016794800758362
0	6532	0.14930881559848785
1	5346	-0.21059733629226685
0	4328	-0.18071860074996948
0	4754	0.07626026123762131
0	4914	0.028770077973604202
0	5536	0.11220820248126984
0	5854	0.05738276615738869
0	5636	-0.03925664350390434
0	5598	-0.006827819161117077
0	5540	-0.010413051582872868
0	5308	-0.04159942641854286
0	5604	0.05316983163356781
0	5710	0.019022325053811073
0	5610	-0.017932716757059097
0	5568	-0.007527061738073826
0	5588	0.0035870152059942484
0	5448	-0.025126531720161438
0	5618	0.030546968802809715
0	5514	-0.01867547817528248
0	5470	-0.007901068776845932
0	5508	0.006850879173725843
0	5520	0.0021700605284422636
0	5318	-0.036586690694093704
0	5414	0.017417600378394127
0	5324	-0.01636819913983345
0	4988	-0.06109831482172012
0	5080	0.016818396747112274
0	4960	-0.022022118791937828
0	4738	-0.04090607538819313
0	4574	-0.03036624565720558
0	4766	0.035798631608486176
0	4600	-0.03129437938332558
0	4594	-0.0011364497477188706
0	4726	0.024959975853562355
0	4630	-0.018155913800001144
0	4618	-0.0022735595703125
0	4656	0.007241589482873678
0	4740	0.0161304771900177
0	4806	0.012747054919600487
0	4766	-0.007765080314129591
0	4946	0.03511875122785568
0	5076	0.02542339824140072
0	4896	-0.035323210060596466
0	5248	0.06944627314805984
0	5014	-0.04627615213394165
0	5108	0.018657704815268517
0	5182	0.014734773896634579
0	5046	-0.02712802030146122
0	5310	0.05286131799221039
0	5420	0.022055581212043762
0	5334	-0.01724921725690365
0	5648	0.06305305659770966
0	5312	-0.06741302460432053
0	5456	0.028892455622553825
0	5534	0.01564568653702736
0	5164	-0.0741126537322998
0	5346	0.03641262277960777
0	5410	0.012781764380633831
0	5432	0.004380608443170786
0	5672	0.047569338232278824
0	5542	-0.025581151247024536
0	6082	0.10572203993797302
0	6226	0.027922488749027252
1	5182	-0.2003249228000641
0	5182	0.0
0	5306	0.023640962317585945
0	5764	0.08693891018629074
0	5754	-0.001885014120489359
0	5786	0.005993856582790613
0	5898	0.02085091546177864
0	5788	-0.020335722714662552
0	5592	-0.03604752570390701
0	6020	0.07846780121326447
0	5622	-0.07246992737054825
0	5458	-0.029794346541166306
0	5616	0.028627336025238037
0	5924	0.055634498596191406
0	5406	-0.09315094351768494
0	5818	0.07392963767051697
0	5624	-0.03470607474446297
0	5846	0.03966693952679634
0	5598	-0.04417790099978447
0	5802	0.03635067865252495
0	5502	-0.053301744163036346
0	5390	-0.01989389955997467
0	5424	0.006044372450560331
0	5406	-0.003195039462298155
0	5296	-0.019518312066793442
0	5092	-0.03622202202677727
0	5226	0.023840870708227158
0	5366	0.024974429979920387
0	5248	-0.02107192948460579
0	5172	-0.013639463111758232
0	5408	0.042622875422239304
0	5272	-0.02452895976603031
0	5272	0.0
0	5264	-0.0014423943357542157
0	5274	0.0018084272742271423
0	5248	-0.004715555347502232
0	5238	-0.0018195933662354946
0	5252	0.002557669300585985
0	5256	0.000733155757188797
0	5152	-0.019101262092590332
0	5116	-0.0066472990438342094
0	5084	-0.005927169695496559
0	5004	-0.014852221123874187
0	5026	0.004099888261407614
0	5030	0.0007496157777495682
0	5002	-0.0052596647292375565
0	4972	-0.005664295982569456
0	5060	0.016683729365468025
0	5072	0.0022864111233502626
0	4912	-0.030587665736675262
0	4732	-0.03460739552974701
0	4494	-0.04598560184240341
0	4462	-0.006218825001269579
0	4394	-0.013297871686518192
0	4380	-0.002755977911874652
0	4348	-0.006337469909340143
0	4300	-0.009553126059472561
0	4508	0.04165276139974594
0	5228	0.14501315355300903
1	4260	-0.19498832523822784
0	3002	-0.25496554374694824
0	3482	0.09889159351587296
0	3802	0.06674824655056
0	4162	0.07586720585823059
0	4324	0.034406594932079315
0	4348	0.005131787154823542
0	4380	0.006886558141559362
0	4376	-0.000866150832735002
0	4338	-0.008280792273581028
0	4414	0.016672760248184204
0	4380	-0.007499338127672672
0	4516	0.030160559341311455
0	4524	0.0017816313775256276
0	4530	0.0013410019455477595
0	4742	0.04755780100822449
0	4606	-0.030574623495340347
0	4808	0.045547474175691605
0	5038	0.05192498490214348
0	5428	0.08806129544973373
0	5470	0.009458181448280811
0	5402	-0.015249371528625488
0	5372	-0.006694137584418058
0	5350	-0.004877184052020311
0	5284	-0.014536164700984955
0	5296	0.0026257820427417755
0	5548	0.05477546155452728
0	5482	-0.014222298748791218
0	5524	0.00897435937076807
0	5564	0.008485603146255016
0	5780	0.0457136370241642
0	6206	0.089200958609581
0	6216	0.002048117108643055
0	6412	0.03940754756331444
0	6504	0.018179424107074738
0	6648	0.028022469952702522
0	6802	0.02952340617775917
0	6804	0.00037750095361843705
0	6866	0.011526734568178654
0	6850	-0.002929437207058072
0	6874	0.004327807575464249
0	6782	-0.01634819246828556
0	6756	-0.00455532968044281
0	6670	-0.014873060397803783
0	6254	-0.07106494903564453
0	6754	0.08458424359560013
0	6606	-0.024756062775850296
0	6172	-0.07179487496614456
0	6306	0.02200159803032875
0	6256	-0.008152971044182777
0	6932	0.10973431915044785
0	7064	0.021259233355522156
0	6358	-0.11269913613796234
0	6388	0.00476392125710845
0	6382	-0.000947577937040478
0	6032	-0.054957710206508636
0	5932	-0.015641944482922554
0	5546	-0.060257263481616974
0	6164	0.09644194692373276
0	5888	-0.042928244918584824
0	6356	0.07266930490732193
0	6804	0.0693570002913475
0	6090	-0.11019765585660934
1	4252	-0.283858060836792
0	4552	0.04685254767537117
0	5338	0.12401388585567474
0	5402	0.010167875327169895
0	5176	-0.0361735075712204
0	4922	-0.041011400520801544
0	5334	0.06722579151391983
0	5248	-0.014149235561490059
0	5206	-0.006972265895456076
0	5226	0.0033493356313556433
0	4922	-0.05134845897555351
0	5280	0.06107060983777046
0	5352	0.012350761331617832
0	5504	0.026284541934728622
0	5208	-0.05151290073990822
0	5386	0.031151557341217995
0	6906	0.26744866371154785
1	5232	-0.2934268116950989
0	5268	0.006373561453074217
0	5672	0.07229173928499222
0	5486	-0.03341957554221153
0	4838	-0.11706189066171646
0	6438	0.29175427556037903
0	5950	-0.08876600861549377
0	5622	-0.05965588614344597
0	5586	-0.006544582080096006
0	5668	0.01495949923992157
0	5842	0.03178585320711136
0	5158	-0.12534359097480774
0	5284	0.023324118927121162
0	6014	0.13580721616744995
0	6458	0.08170776814222336
0	5730	-0.1324230283498764
0	5040	-0.12521322071552277
0	5202	0.029462402686476707
0	5286	0.015274394303560257
0	5320	0.006168882362544537
0	5334	0.002540342975407839
0	5106	-0.04134979471564293
0	5374	0.04863354191184044
0	5336	-0.006889632903039455
0	5258	-0.01410658285021782
0	5214	-0.007958615198731422
0	5328	0.02063721977174282
0	5300	-0.005074179731309414
0	5228	-0.013040643185377121
0	5680	0.08194442838430405
0	5152	-0.09643717855215073
0	5442	0.052993204444646835
0	5422	-0.003650834085419774
0	5538	0.02120709791779518
0	5666	0.023393522948026657
0	5670	0.0007273785304278135
0	5486	-0.033615902066230774
0	5454	-0.005862810183316469
0	5336	-0.021641317754983902
0	5264	-0.013225083239376545
0	5228	-0.00662893895059824
0	5236	0.0014786701649427414
0	5298	0.011454189196228981
0	5300	0.0003694581100717187
0	5596	0.05492126941680908
0	6484	0.16564692556858063
0	6042	-0.0820656344294548
1	4042	-0.369049072265625
0	4422	0.07062321901321411
0	4942	0.09716235846281052
0	5422	0.08989998698234558
0	5538	0.021713899448513985
0	5542	0.000746742298360914
0	5564	0.004102793522179127
0	5588	0.004469440318644047
0	5602	0.0026018437929451466
0	5620	0.0033372060861438513
0	5638	0.003331194631755352
0	5658	0.0036936260294169188
0	5728	0.012893560342490673
0	5762	0.006260741502046585
0	5846	0.015410016290843487
0	5948	0.018666047602891922
0	6004	0.010215249843895435
0	6050	0.008367389440536499
0	6078	0.0050813620910048485
0	6036	-0.007603278383612633
0	5996	-0.007217263802886009
0	5944	-0.009351956658065319
0	5858	-0.0154105294495821
0	5700	-0.028212271630764008
0	5546	-0.027421001344919205
0	5440	-0.018839532509446144
0	5344	-0.017047874629497528
0	5286	-0.010297076776623726
0	5318	0.005691586993634701
0	5310	-0.0014328015968203545
0	5476	0.029861126095056534
0	5516	0.007134109269827604
0	5512	-0.0007088009151630104
0	5732	0.0388532392680645
0	5270	-0.0814431831240654
0	5652	0.06744667887687683
0	5528	-0.021879522129893303
0	5558	0.005294553469866514
0	5816	0.045541197061538696
0	6046	0.0405476875603199
0	5892	-0.027081526815891266
0	6060	0.029499560594558716
0	6322	0.04589727520942688
0	6340	0.0031423482578247786
0	5852	-0.08490697294473648
0	5748	-0.018094299361109734
0	5548	-0.034837137907743454
0	5888	0.05938034877181053
0	6062	0.03041745349764824
0	5922	-0.02447609417140484
0	5890	-0.005598254967480898
0	5878	-0.0021006441675126553
0	5804	-0.012958962470293045
0	5874	0.012262344360351562
0	5664	-0.036749694496393204
0	5620	-0.007694639265537262
0	5544	-0.013276809826493263
0	5688	0.025126798078417778
0	5656	-0.005570707377046347
0	5492	-0.028493987396359444
0	5680	0.03262944892048836
0	5504	-0.030510706827044487
0	5166	-0.058598488569259644
0	5192	0.004516607150435448
0	5198	0.001045563374646008
0	5220	0.0038353363052010536
0	5240	0.0034954443108290434
0	5346	0.01855698972940445
0	5344	-0.0003505655622575432
0	6174	0.14588703215122223
0	5816	-0.06287761777639389
0	5152	-0.11667408049106598
1	4100	-0.1858394593000412
0	4488	0.069450244307518
0	5410	0.16687782108783722
0	5726	0.05734749883413315
0	5394	-0.06025918945670128
0	5484	0.016350556164979935
0	5608	0.022582681849598885
0	5746	0.025201797485351562
0	5764	0.0032907165586948395
0	5716	-0.008781987242400646
0	5682	-0.006226725876331329
0	5690	0.0014662040630355477
0	5672	-0.003302671480923891
0	5656	-0.0029355643782764673
0	5664	0.001467459020204842
0	5688	0.004399149212986231
0	5698	0.0018329789163544774
0	5654	-0.008063037879765034
0	5578	-0.013913298025727272
0	5540	-0.0069609819911420345
0	5442	-0.017948059365153313
0	5338	-0.019014883786439896
0	5190	-0.027035584673285484
0	5012	-0.03251735493540764
0	4940	-0.013169767335057259
0	4890	-0.009162431582808495
0	4824	-0.012128191068768501
0	4848	0.004424343816936016
0	4832	-0.0029737933073192835
0	4860	0.005236058961600065
0	4894	0.0063696657307446
0	4920	0.00484688812866807
0	4994	0.013758056797087193
0	5090	0.017894422635436058
0	5236	0.027322404086589813
0	5298	0.011614111252129078
0	5402	0.01950438879430294
0	5490	0.016524994745850563
0	5544	0.010156611911952496
0	5574	0.005650355946272612
0	5608	0.006409450899809599
0	5626	0.0033948172349482775
0	5640	0.0026414759922772646
0	5672	0.0060388753190636635
0	5720	0.009057401679456234
0	5712	-0.00150903535541147
0	5738	0.004903624765574932
0	5750	0.0022626426070928574
0	5748	-0.00037687967414967716
0	5824	0.014306152239441872
0	5776	-0.009019391611218452
0	5724	-0.009750609286129475
0	5832	0.020202523097395897
0	5898	0.012296762317419052
0	5784	-0.021123629063367844
0	5704	-0.01474672555923462
0	5572	-0.02421100065112114
0	5498	-0.013511045835912228
0	5556	0.01054801233112812
0	5532	-0.0043456219136714935
0	5556	0.004328067414462566
0	5498	-0.010418038815259933
0	5652	0.027566291391849518
0	6724	0.1911395788192749
0	6472	-0.04449990764260292
1	4828	-0.2882120609283447
0	4532	-0.05203511193394661
0	5134	0.10637044161558151
0	5660	0.09313690662384033
0	5978	0.05626857653260231
0	6042	0.011297574266791344
0	6060	0.003169348929077387
0	6056	-0.0007025102968327701
0	6012	-0.0077088396064937115
0	6032	0.003497073892503977
0	6046	0.002443508245050907
0	6034	-0.0020903737749904394
0	6042	0.001391191384755075
0	6038	-0.0006944203050807118
0	6044	0.001039885333739221
0	6040	-0.0006923769251443446
0	6028	-0.0020739715546369553
0	5924	-0.017942996695637703
0	6132	0.03586701676249504
0	6102	-0.005166178569197655
0	5930	-0.02956545539200306
0	5856	-0.012703572399914265
0	5596	-0.04456175118684769
0	5230	-0.06269413232803345
0	5586	0.06109490245580673
1	4336	-0.21445238590240479
0	5646	0.226325124502182
0	5516	-0.02244061790406704
0	5316	-0.03455106541514397
0	5310	-0.0010450048139318824
0	5192	-0.020691348239779472
0	5032	-0.027996500954031944
0	4908	-0.021634196862578392
0	4782	-0.02201206609606743
0	4976	0.034065768122673035
0	4998	0.003885918762534857
0	5018	0.0035545025020837784
0	5080	0.011087399907410145
0	5160	0.014390042051672935
0	5132	-0.00506237568333745
0	5220	0.015997091308236122
0	5246	0.004750188905745745
0	5288	0.007710382807999849
0	5302	0.0025820410810410976
0	5350	0.008892951533198357
0	5342	-0.0014885382261127234
0	5452	0.020556394010782242
0	5600	0.02775728702545166
0	5684	0.01578611135482788
0	5628	-0.010553691536188126
0	5490	-0.026084983721375465
0	5464	-0.004928224720060825
0	5510	0.00874081626534462
0	5548	0.007224609609693289
0	5566	0.0034153005108237267
0	5688	0.023151075467467308
0	5630	-0.010912923142313957
0	6174	0.10236596316099167
0	6782	0.11393875628709793
1	5190	-0.29563236236572266
0	4756	-0.08065315335988998
0	5176	0.0782628133893013
0	5526	0.06516072899103165
0	5794	0.04970388114452362
0	5894	0.018430914729833603
0	5886	-0.0014662040630355477
0	5882	-0.0007291464135050774
0	5844	-0.006890716031193733
0	5854	0.0018050107173621655
0	5840	-0.0025165071710944176
0	5800	-0.00715964799746871
0	5842	0.007491705473512411
0	5784	-0.010309156030416489
0	5846	0.010987842455506325
0	5794	-0.009186089038848877
0	5822	0.004933457355946302
0	5882	0.010541974566876888
0	5850	-0.005608262959867716
0	5778	-0.01260018814355135
0	5748	-0.005247201304882765
0	5634	-0.019925424829125404
0	5540	-0.01641596481204033
0	5360	-0.03142092376947403
0	5294	-0.011531069874763489
0	5182	-0.01959686353802681
0	5182	0.0
0	5216	0.005980089772492647
0	5220	0.0007052517612464726
0	5226	0.001063842442817986
0	5278	0.009305543266236782
0	5278	0.0
0	5304	0.0046359035186469555
0	5316	0.002138021169230342
0	5352	0.0064220731146633625
0	5382	0.005365830380469561
0	5400	0.003229356138035655
0	5426	0.0046782223507761955
0	5386	-0.007217003032565117
0	5448	0.011217252351343632
0	5434	-0.0025391452945768833
0	5462	0.005090785678476095
0	5434	-0.005101235117763281
0	5440	0.0010958370985463262
0	5492	0.00951718632131815
0	5506	0.002567864954471588
0	5458	-0.0088196387514472
0	5526	0.01252240501344204
0	5674	0.027314336970448494
0	5610	-0.011824407614767551
0	5568	-0.007767804432660341
0	5454	-0.021107463166117668
0	5428	-0.00481933681294322
0	5366	-0.011500222608447075
0	5418	0.009644990786910057
0	5470	0.009637601673603058
0	5472	0.00037001862074248493
0	5516	0.008125877939164639
0	6286	0.14194072782993317
0	6202	-0.015383675694465637
1	4744	-0.2654351592063904
0	4904	0.02922338806092739
0	5210	0.056017279624938965
0	5500	0.053118739277124405
0	5668	0.030737703666090965
0	5656	-0.002191327279433608
0	5724	0.012396845035254955
0	5702	-0.004002862609922886
0	5720	0.003269596491008997
0	5714	-0.0010876659071072936
0	5708	-0.0010859204921871424
0	5732	0.004336513578891754
0	5714	-0.0032471048180013895
0	5710	-0.0007203659624792635
0	5770	0.010788003914058208
0	5772	0.000359001976903528
0	5802	0.005376472603529692
0	5796	-0.0010730893118306994
0	5778	-0.0032140943221747875
0	5798	0.00356900691986084
0	5728	-0.012477569282054901
0	5714	-0.0024931440129876137
0	5644	-0.0124465087428689
0	5576	-0.012075436301529408
0	5490	-0.0152529152110219
0	5358	-0.023401489481329918
0	5312	-0.008160465396940708
0	5304	-0.0014205554034560919
0	5320	0.002844680566340685
0	5334	0.0025034272111952305
0	5336	0.0003594924055505544
0	5392	0.010030210018157959
0	5380	-0.002143086865544319
0	5486	0.018911460414528847
0	5518	0.005709595512598753
0	5500	-0.0032145152799785137
0	5528	0.005005005281418562
0	5526	-0.0003579183539841324
0	5554	0.0050161234103143215
0	5568	0.0025105501990765333
0	5582	0.002512743230909109
0	5600	0.003233107039704919
0	5554	-0.00826891977339983
0	5570	0.0028789062052965164
0	5514	-0.010084639303386211
0	5526	0.002164319856092334
0	5528	0.00036125429323874414
0	5542	0.0025329585187137127
0	5656	0.020657164976000786
0	5652	-0.0007253472576849163
0	5576	-0.013793771155178547
0	5524	-0.009446530602872372
0	5442	-0.014913610182702541
0	5412	-0.0054628886282444
0	5442	0.0054683322086930275
0	5452	0.0018233092268928885
0	5496	0.008017979562282562
0	5544	0.00873712170869112
0	6160	0.11196336150169373
0	6000	-0.028934139758348465
1	4544	-0.26224783062934875
0	5134	0.10677573084831238
0	5368	0.042414356023073196
0	5560	0.03480404615402222
0	5658	0.017756624147295952
0	5624	-0.006155257113277912
0	5648	0.004341638647019863
0	5668	0.003615416120737791
0	5664	-0.000722465047147125
0	5644	-0.003609934588894248
0	5646	0.00036082847509533167
0	5640	-0.00108206900767982
0	5650	0.0018030146602541208
0	5624	-0.004685134626924992
0	5648	0.004323337692767382
0	5632	-0.0028799078427255154
0	5702	0.012591589242219925
0	5650	-0.009344002231955528
0	5652	0.00035915241460315883
0	5642	-0.0017958050593733788
0	5596	-0.008261197246611118
0	5482	-0.02047095075249672
0	5444	-0.00682536605745554
0	5338	-0.019038952887058258
0	5282	-0.01006277184933424
0	5250	-0.005755671765655279
0	5224	-0.004682153929024935
0	5258	0.006132829934358597
0	5280	0.00397513760253787
0	5270	-0.0018165083602070808
0	5282	0.0021894879173487425
0	5318	0.006539113353937864
0	5322	0.0007257596007548273
0	5350	0.0050817313604056835
0	5384	0.006178523413836956
0	5418	0.00618879497051239
0	5400	-0.00328052113763988
0	5452	0.009491360746324062
0	5486	0.006214055698364973
0	5442	-0.008050450123846531
0	5472	0.00549571355804801
0	5488	0.0029341646004468203
0	5476	-0.0022026703227311373
0	5430	-0.008452567271888256
0	5484	0.009934384375810623
0	5502	0.003314794972538948
0	5426	-0.014006978832185268
0	5486	0.011076923459768295
0	5606	0.0221762266010046
0	5590	-0.002957668388262391
0	5514	-0.014053428545594215
0	5472	-0.007770294789224863
0	5398	-0.013691364787518978
0	5400	0.0003701418754644692
0	5408	0.0014800014905631542
0	5412	0.0007394261774607003
0	5448	0.006648199632763863
0	5662	0.03946543484926224
0	6240	0.10632949322462082
0	5704	-0.09802607446908951
1	4450	-0.2287319451570511
0	5094	0.1180640459060669
0	5414	0.05874577537178993
0	5636	0.04073195159435272
0	5676	0.007326276041567326
0	5672	-0.0007313238456845284
0	5690	0.0032858706545084715
0	5682	-0.0014578145928680897
0	5684	0.00036394514609128237
0	5712	0.005089120473712683
0	5698	-0.002540404675528407
0	5706	0.0014496779767796397
0	5676	-0.00542914355173707
0	5724	0.008676161989569664
0	5710	-0.0025260725524276495
0	5742	0.005766042973846197
0	5758	0.002878871513530612
0	5798	0.007182876113802195
0	5784	-0.00250932015478611
0	5758	-0.004655215889215469
0	5742	-0.002861878601834178
0	5686	-0.010002977214753628
0	5626	-0.01070383656769991
0	5528	-0.017459260299801826
0	5400	-0.022786611691117287
0	5328	-0.012818077579140663
0	5266	-0.011043294332921505
0	5258	-0.0014264825731515884
0	5268	0.001787395216524601
0	5290	0.003955174703150988
0	5336	0.008290478959679604
0	5338	0.00035854714224115014
0	5376	0.006802477408200502
0	5372	-0.0007162126712501049
0	5424	0.00932545866817236
0	5446	0.0039513385854661465
0	5424	-0.0039566922932863235
0	5456	0.0057643805630505085
0	5476	0.003607633989304304
0	5494	0.003250936046242714
0	5468	-0.004701967351138592
0	5486	0.0032597279641777277
0	5494	0.0014506945153698325
0	5518	0.004356876481324434
0	5494	-0.004362314473837614
0	5500	0.001092007732950151
0	5512	0.002187226666137576
0	5508	-0.0007301667938008904
0	5512	0.0007314575486816466
0	5536	0.004396033473312855
0	5534	-0.0003668333520181477
0	5570	0.0066114082001149654
0	5502	-0.012497090734541416
0	5500	-0.00036784089752472937
0	5604	0.0191310103982687
0	5710	0.019474554806947708
0	5660	-0.00916467048227787
0	5556	-0.01901673711836338
0	5458	-0.01788712851703167
0	5384	-0.013491012156009674
0	5362	-0.0040085515938699245
0	5444	0.014938605949282646
0	5474	0.005461827851831913
0	5494	0.003639054484665394
0	5856	0.0658181831240654
0	6214	0.06492093205451965
0	5418	-0.1436823159456253
1	4258	-0.20939384400844574
0	4974	0.13018497824668884
0	5386	0.07513952255249023
0	5628	0.04416434466838837
0	5688	0.010939190164208412
0	5698	0.0018209628760814667
0	5718	0.003637421876192093
0	5740	0.003996318206191063
0	5704	-0.006529704201966524
0	5718	0.00253620115108788
0	5712	-0.0010855930158868432
0	5698	-0.0025299375411123037
0	5736	0.006859288550913334
0	5748	0.002163487486541271
0	5748	0.0
0	5760	0.002158402930945158
0	5782	0.003950960468500853
0	5812	0.005378593225032091
0	5802	-0.0017906385473906994
0	5732	-0.012527590617537498
0	5712	-0.0035777746234089136
0	5670	-0.007506344933062792
0	5528	-0.025346580892801285
0	5444	-0.014980916865170002
0	5322	-0.021747397258877754
0	5266	-0.009989653714001179
0	5248	-0.00321493623778224
0	5246	-0.0003577391034923494
0	5268	0.0039494941011071205
0	5278	0.0018054452957585454
0	5256	-0.003975328989326954
0	5328	0.012932428158819675
0	5340	0.0021508459467440844
0	5364	0.00430287467315793
0	5420	0.010055906139314175
0	5414	-0.001079149660654366
0	5442	0.0050446209497749805
0	5452	0.0018046415643766522
0	5470	0.0032539921812713146
0	5486	0.002896521706134081
0	5508	0.003988300915807486
0	5494	-0.0025411422830075026
0	5490	-0.0007269378984346986
0	5506	0.002912091091275215
0	5464	-0.00765547901391983
0	5482	0.003286590799689293
0	5480	-0.0003657956840470433
0	5480	0.0
0	5502	0.004039365332573652
0	5474	-0.005150467157363892
0	5490	0.002947787521407008
0	5516	0.004796694032847881
0	5516	0.0
0	5512	-0.0007387070218101144
0	5508	-0.0007383979391306639
0	5526	0.0033189919777214527
0	5508	-0.0033136967103928328
0	5496	-0.002205612137913704
0	5562	0.012112313881516457
0	5548	-0.0025646663270890713
0	5534	-0.002560444874688983
0	5606	0.013145722448825836
0	5672	0.012029891833662987
0	5662	-0.0018190417904406786
0	5622	-0.007263042964041233
0	5578	-0.007979591377079487
0	5490	-0.0159433763474226
0	5372	-0.021372424438595772
0	5338	-0.006161131430417299
0	5376	0.006891465280205011
0	5402	0.00471835071220994
0	5394	-0.0014527317835018039
0	5954	0.10175281763076782
0	6174	0.039862293750047684
0	5418	-0.13643090426921844
1	4126	-0.23322421312332153
0	4930	0.14632725715637207
0	5368	0.0799824669957161
0	5610	0.04422137513756752
0	5664	0.009861092083156109
0	5658	-0.0010944112436845899
0	5672	0.0025510203558951616
0	5658	-0.0025486054364591837
0	5644	-0.0025464114733040333
0	5640	-0.0007269643247127533
0	5630	-0.001815958647057414
0	5630	0.0
0	5624	-0.0010880866320803761
0	5650	0.0047113969922065735
0	5612	-0.00688222935423255
0	5648	0.00651748850941658
0	5672	0.004342005588114262
0	5662	-0.001808449043892324
0	5676	0.0025319813285022974
0	5638	-0.006871940568089485
0	5576	-0.01121103297919035
0	5512	-0.011572818271815777
0	5452	-0.01084807887673378
0	5352	-0.01807141862809658
0	5208	-0.02602064609527588
0	5140	-0.012299974448978901
0	5096	-0.007971399463713169
0	5106	0.0018149479292333126
0	5106	0.0
0	5118	0.002203479176387191
0	5152	0.0062546757981181145
0	5174	0.004021839704364538
0	5212	0.006936500780284405
0	5212	0.0
0	5248	0.006593648344278336
0	5256	0.001468986039981246
0	5272	0.0029452189337462187
0	5300	0.00516681419685483
0	5302	0.00036987263592891395
0	5318	0.002965232590213418
0	5314	-0.000742785690817982
0	5322	0.0014884828124195337
0	5336	0.0026098303496837616
0	5364	0.0052290186285972595
0	5346	-0.003367507131770253
0	5318	-0.005247048567980528
0	5330	0.0022533799055963755
0	5330	0.0
0	5354	0.0045258537866175175
0	5346	-0.0015116777503862977
0	5362	0.003028926206752658
0	5378	0.0030330221634358168
0	5384	0.0011383472010493279
0	5400	0.0030368983279913664
0	5352	-0.009107928723096848
0	5384	0.006066427566111088
0	5428	0.008328495547175407
0	5410	-0.0033999900333583355
0	5434	0.004524659365415573
0	5414	-0.0037627932615578175
0	5460	0.00863838940858841
0	5508	0.008996626362204552
0	5618	0.020574335008859634
0	5670	0.009701492264866829
0	5662	-0.001488298294134438
0	5626	-0.006680191494524479
0	5548	-0.01444070041179657
0	5494	-0.009980408474802971
0	5408	-0.01587574928998947
0	5406	-0.00036896285018883646
0	5468	0.011431662365794182
0	5468	0.0
0	5512	0.008097861893475056
0	5574	0.011398316361010075
0	6274	0.1285252720117569
0	6174	-0.018257059156894684
1	4348	-0.33164623379707336
0	5038	0.12607038021087646
0	5466	0.07833949476480484
0	5768	0.05523918569087982
0	5810	0.007662555202841759
0	5812	0.00036389220622368157
0	5802	-0.0018146843649446964
0	5836	0.0061543663032352924
0	5822	-0.0025275014340877533
0	5860	0.00684101227670908
0	5860	0.0
0	5832	-0.005013428628444672
0	5864	0.005715237930417061
0	5884	0.00356290303170681
0	5896	0.0021317920181900263
0	5918	0.0038982208352535963
0	5932	0.0024746933486312628
0	5904	-0.004940246697515249
0	5866	-0.006695406045764685
0	5820	-0.008095265366137028
0	5730	-0.015820560976862907
0	5606	-0.021773995831608772
0	5494	-0.01965394988656044
0	5354	-0.024555085226893425
0	5332	-0.0038598296232521534
0	5320	-0.002107037464156747
0	5320	0.0
0	5340	0.0035187313333153725
0	5344	0.000704713340383023
0	5348	0.0007085832767188549
0	5352	0.0007120562950149179
0	5370	0.003185276873409748
0	5420	0.008830697275698185
0	5446	0.004593207035213709
0	5502	0.009911855682730675
0	5518	0.002837114268913865
0	5522	0.0007105132099241018
0	5544	0.003914311993867159
0	5546	0.00035646389005705714
0	5534	-0.002142295939847827
0	5556	0.003935176879167557
0	5524	-0.005734287202358246
0	5540	0.002872428158298135
0	5542	0.0003597510512918234
0	5524	-0.003244412364438176
0	5540	0.002890382194891572
0	5510	-0.005431830417364836
0	5522	0.002178280148655176
0	5546	0.00436665304005146
0	5552	0.0010937860934063792
0	5564	0.0021911405492573977
0	5544	-0.0036555940750986338
0	5580	0.006582556292414665
0	5568	-0.00219303579069674
0	5582	0.002555210841819644
0	5600	0.003280281787738204
0	5590	-0.0018192845163866878
0	5586	-0.0007265242165885866
0	5624	0.006891715340316296
0	5608	-0.0028968711849302053
0	5648	0.007230832241475582
0	5732	0.015157712623476982
0	5788	0.010083186440169811
0	5704	-0.015091446228325367
0	5668	-0.006457785610109568
0	5568	-0.01792050339281559
0	5534	-0.0060911523178219795
0	5416	-0.02113836631178856
0	5404	-0.0021513088140636683
0	5426	0.003947415854781866
0	5444	0.003231791313737631
0	5510	0.011857850477099419
0	5468	-0.00754653662443161
0	6112	0.11576348543167114
0	6486	0.06700026988983154
1	5476	-0.17990310490131378
0	4378	-0.19565217196941376
0	4990	0.10979022830724716
0	5352	0.06514853239059448
0	5696	0.061981234699487686
0	5758	0.011161384172737598
0	5762	0.0007192519842647016
0	5750	-0.0021549402736127377
0	5762	0.0021527495700865984
0	5762	0.0
0	5772	0.001789954723790288
0	5760	-0.0021457436960190535
0	5788	0.00500166742131114
0	5778	-0.001784163760021329
0	5754	-0.004278074949979782
0	5770	0.0028495779260993004
0	5804	0.006050970871001482
0	5814	0.0017789372941479087
0	5864	0.008893315680325031
0	5808	-0.009951073676347733
0	5788	-0.0035510100424289703
0	5756	-0.00567422853782773
0	5674	-0.014521156437695026
0	5548	-0.02227906696498394
0	5416	-0.023320181295275688
0	5316	-0.017667844891548157
0	5268	-0.008486962877213955
0	5182	-0.015227528288960457
0	5206	0.004256728105247021
0	5206	0.0
0	5214	0.0014374873135238886
0	5262	0.008638479746878147
0	5296	0.006086645182222128
0	5328	0.005718165542930365
0	5378	0.00893591158092022
0	5404	0.004655493423342705
0	5450	0.008254081942141056
0	5448	-0.00035954409395344555
0	5502	0.009725290350615978
0	5528	0.0046898676082491875
0	5482	-0.008309148252010345
0	5528	0.008323682472109795
0	5536	0.0014496255898848176
0	5472	-0.011614683084189892
0	5526	0.00981806218624115
0	5488	-0.006918567232787609
0	5528	0.007295187097042799
0	5482	-0.008403565734624863
0	5518	0.006590027362108231
0	5518	0.0
0	5496	-0.004042928572744131
0	5498	0.0003681975358631462
0	5472	-0.004794158507138491
0	5476	0.0007384797208942473
0	5468	-0.0014776141615584493
0	5466	-0.00036928532063029706
0	5498	0.005903115030378103
0	5492	-0.0011052709305658937
0	5500	0.0014708946691825986
0	5516	0.002936498261988163
0	5532	0.0029309396632015705
0	5570	0.006947491317987442
0	5582	0.0021898343693464994
0	5682	0.018216926604509354
0	5754	0.013088053092360497
0	5672	-0.01487195584923029
0	5586	-0.01557218749076128
0	5562	-0.004342162050306797
0	5464	-0.01771831512451172
0	5422	-0.007595303002744913
0	5434	0.0021714740432798862
0	5480	0.008326394483447075
0	5472	-0.0014484880957752466
0	5488	0.002898095641285181
0	5896	0.07389430701732635
0	6574	0.12252125889062881
0	5802	-0.13860130310058594
1	4340	-0.262050986289978
0	4826	0.08770979940891266
0	5162	0.060892365872859955
0	5496	0.060660358518362045
0	5672	0.0319647416472435
0	5708	0.006531362421810627
0	5734	0.0047103725373744965
0	5710	-0.004341272171586752
0	5716	0.0010837367735803127
0	5722	0.0010821078903973103
0	5758	0.006483916193246841
0	5726	-0.005754291545599699
0	5740	0.0025140969082713127
0	5758	0.0032280818559229374
0	5778	0.0035819183103740215
0	5790	0.0021464857272803783
0	5826	0.006431480869650841
0	5826	0.0
0	5822	-0.0007136909989640117
0	5784	-0.006774021312594414
0	5732	-0.009258819743990898
0	5702	-0.005336242727935314
0	5578	-0.02202538773417473
0	5448	-0.023069823160767555
0	5354	-0.016679877415299416
0	5262	-0.016337160021066666
0	5278	0.0028447816148400307
0	5256	-0.003916448913514614
0	5246	-0.0017869906732812524
0	5250	0.0007204957073554397
0	5278	0.005060240626335144
0	5314	0.006469467654824257
0	5306	-0.00143346912227571
0	5356	0.00895148329436779
0	5402	0.008242250420153141
0	5420	0.003230437869206071
0	5474	0.009708039462566376
0	5486	0.0021607086528092623
0	5470	-0.002884823363274336
0	5502	0.005778189282864332
0	5510	0.0014464628184214234
0	5510	0.0
0	5500	-0.001813148963265121
0	5502	0.0003631565487012267
0	5516	0.0025460408069193363
0	5494	-0.004007285926491022
0	5500	0.001094863866455853
0	5516	0.0029254378750920296
0	5490	-0.004762835334986448
0	5506	0.00293692946434021
0	5502	-0.0007354833651334047
0	5528	0.004787391051650047
0	5510	-0.0033178909216076136
0	5542	0.00590093806385994
0	5534	-0.0014743825886398554
0	5538	0.0007363770273514092
0	5524	-0.002572961850091815
0	5532	0.0014680515741929412
0	5532	0.0
0	5534	0.00036575552076101303
0	5552	0.0032861107029020786
0	5564	0.0021870937198400497
0	5572	0.0014558512484654784
0	5604	0.005814024247229099
0	5746	0.025761038064956665
0	5696	-0.009051958099007607
0	5596	-0.01807381398975849
0	5532	-0.011558745056390762
0	5504	-0.005055550951510668
0	5398	-0.01913495548069477
0	5386	-0.0021675778552889824
0	5404	0.003253796137869358
0	5408	0.0007235279190354049
0	5430	0.003981612157076597
0	5404	-0.004707586485892534
0	5894	0.08877991139888763
0	6374	0.08675848692655563
1	5280	-0.1967012733221054
0	4568	-0.12819896638393402
0	5064	0.08980409801006317
0	5416	0.06390240788459778
0	5648	0.04213942587375641
0	5702	0.00980119314044714
0	5714	0.0021755159832537174
0	5710	-0.0007244189619086683
0	5714	0.0007236500969156623
0	5708	-0.0010843243217095733
0	5682	-0.004693536087870598
0	5688	0.001082147005945444
0	5702	0.002522643655538559
0	5698	-0.0007200287654995918
0	5718	0.0035969926975667477
0	5730	0.0021562050096690655
0	5706	-0.004308333154767752
0	5758	0.009329027496278286
0	5780	0.0039466130547225475
0	5798	0.003227425739169121
0	5772	-0.004656216129660606
0	5714	-0.010372083634138107
0	5696	-0.0032148982863873243
0	5626	-0.012480239383876324
0	5512	-0.020296012982726097
0	5374	-0.024553120136260986
0	5308	-0.011745165102183819
0	5246	-0.011041328310966492
0	5200	-0.008199643343687057
0	5194	-0.0010739471763372421
0	5208	0.0025236441288143396
0	5238	0.005410149693489075
0	5272	0.006106906570494175
0	5278	0.0010763490572571754
0	5290	0.002154476009309292
0	5314	0.004318203777074814
0	5336	0.003967585973441601
0	5366	0.005422666668891907
0	5396	0.005433929618448019
0	5426	0.005444382783025503
0	5456	0.0054536862298846245
0	5484	0.0050970870070159435
0	5476	-0.0014581156428903341
0	5484	0.0014601204311475158
0	5472	-0.00219303579069674
0	5502	0.005490818526595831
0	5518	0.00293251546099782
0	5488	-0.005504789296537638
0	5502	0.0025731511414051056
0	5482	-0.0036822014953941107
0	5482	0.0
0	5508	0.004804730881005526
0	5478	-0.005550963804125786
0	5490	0.0022233750205487013
0	5530	0.007417480926960707
0	5510	-0.003708327654749155
0	5524	0.0025936493184417486
0	5518	-0.0011100833071395755
0	5490	-0.005171712953597307
0	5502	0.002212498104199767
0	5488	-0.002576370956376195
0	5526	0.006981016136705875
0	5528	0.0003667750861495733
0	5526	-0.0003662020026240498
0	5544	0.003290836699306965
0	5532	-0.002190500497817993
0	5626	0.017136190086603165
0	5738	0.02038167044520378
0	5658	-0.014525559730827808
0	5586	-0.01305230613797903
0	5512	-0.013401912525296211
0	5474	-0.006879737135022879
0	5388	-0.015570871531963348
0	5372	-0.002898445585742593
0	5416	0.00797611940652132
0	5442	0.004714757204055786
0	5450	0.001451220829039812
0	5438	-0.002177726710215211
0	5552	0.020694663748145103
0	6222	0.12158973515033722
0	6156	-0.011924119666218758
1	4796	-0.24471580982208252
0	4666	-0.023492276668548584
0	5196	0.09624697268009186
0	5530	0.060761887580156326
0	5690	0.029107490554451942
0	5728	0.006905491463840008
0	5726	-0.00036299836938269436
0	5720	-0.0010876264423131943
0	5732	0.0021722340025007725
0	5710	-0.003976909909397364
0	5718	0.00144421705044806
0	5726	0.0014425504487007856
0	5704	-0.003962297923862934
0	5724	0.003598244162276387
0	5714	-0.0017971820197999477
0	5746	0.005744718946516514
0	5782	0.0064581711776554585
0	5770	-0.0021521577145904303
0	5818	0.008602870628237724
0	5810	-0.001431827200576663
0	5834	0.00428785802796483
0	5766	-0.01212294027209282
0	5712	-0.009605464525520802
0	5584	-0.022722700610756874
0	5482	-0.01808916963636875
0	5372	-0.019503314048051834
0	5268	-0.018448002636432648
0	5236	-0.005682019982486963
0	5208	-0.004981083795428276
0	5196	-0.002147663850337267
0	5226	0.005400086287409067
0	5240	0.002513555344194174
0	5252	0.0021471004001796246
0	5292	0.0071546114049851894
0	5284	-0.0014329556142911315
0	5346	0.011132391169667244
0	5380	0.0061188493855297565
0	5388	0.001442723791114986
0	5436	0.008673653937876225
0	5456	0.003620477393269539
0	5460	0.0007252070354297757
0	5494	0.006173885427415371
0	5482	-0.0021820825058966875
0	5474	-0.0014566819882020354
0	5494	0.0036472389474511147
0	5514	0.003652123035863042
0	5486	-0.005120202898979187
0	5504	0.00329750869423151
0	5518	0.002568901749327779
0	5500	-0.0033089453354477882
0	5506	0.001105080940760672
0	5488	-0.0033219321630895138
0	5516	0.005176302511245012
0	5484	-0.005922927986830473
0	5524	0.0074082305654883385
0	5526	0.00037031550891697407
0	5524	-0.0003699638764373958
0	5528	0.0007387615623883903
0	5528	0.0
0	5516	-0.002207965822890401
0	5542	0.004774555563926697
0	5512	-0.005498466081917286
0	5540	0.005123388487845659
0	5552	0.0021918874699622393
0	5542	-0.0018236860632896423
0	5702	0.029133284464478493
0	5708	0.0010901426430791616
0	5638	-0.012693117372691631
0	5574	-0.011587625369429588
0	5528	-0.008321674540638924
0	5490	-0.006871443707495928
0	5364	-0.02278014086186886
0	5380	0.002894984558224678
0	5400	0.003620958188548684
0	5426	0.004709349013864994
0	5454	0.005073689389973879
0	5454	0.0
0	5594	0.025382550433278084
0	6210	0.11162251234054565
0	6216	0.0010827068472281098
1	5210	-0.1807553619146347
0	4306	-0.16271674633026123
0	4878	0.10369332134723663
0	5262	0.06988170742988586
0	5590	0.05977112054824829
0	5678	0.016029728576540947
0	5714	0.006551569327712059
0	5732	0.003272013273090124
0	5742	0.0018155410652980208
0	5724	-0.003263747086748481
0	5722	-0.00036218322929926217
0	5708	-0.0025325308088213205
0	5700	-0.0014454522170126438
0	5730	0.005415227729827166
0	5752	0.0039669182151556015
0	5746	-0.0010805230122059584
0	5770	0.004320950713008642
0	5790	0.003599453018978238
0	5800	0.0017980867996811867
0	5786	-0.0025139162316918373
0	5786	0.0
0	5728	-0.010380375199019909
0	5666	-0.011072219349443913
0	5594	-0.012836207635700703
0	5442	-0.027067454531788826
0	5336	-0.018874196335673332
0	5270	-0.01176009327173233
0	5226	-0.007848639972507954
0	5182	-0.007865851745009422
0	5196	0.0025181970559060574
0	5232	0.006515208166092634
0	5256	0.004342895932495594
0	5268	0.0021590760443359613
0	5288	0.0035900629591196775
0	5320	0.005743206944316626
0	5338	0.0032357806339859962
0	5382	0.007925833575427532
0	5402	0.003609847743064165
0	5428	0.004702137783169746
0	5470	0.007610166445374489
0	5468	-0.0003629456623457372
0	5514	0.008360596373677254
0	5482	-0.00582291092723608
0	5524	0.00765268923714757
0	5516	-0.001459481194615364
0	5508	-0.0014615787658840418
0	5502	-0.001097775180824101
0	5498	-0.0007330483058467507
0	5496	-0.0003671791055239737
0	5514	0.003310771193355322
0	5492	-0.004053257405757904
0	5514	0.004060589242726564
0	5514	0.0
0	5502	-0.002219865331426263
0	5506	0.0007403751369565725
0	5508	0.00037004146724939346
0	5514	0.0011089480249211192
0	5524	0.0018454724922776222
0	5534	0.0018420955166220665
0	5504	-0.005514367949217558
0	5530	0.004770116880536079
0	5512	-0.003296381328254938
0	5518	0.0010970792500302196
0	5522	0.0007302734884433448
0	5552	0.005469262599945068
0	5550	-0.0003641041985247284
0	5686	0.024727271869778633
0	5724	0.006896384991705418
0	5638	-0.015577264130115509
0	5596	-0.007597867865115404
0	5508	-0.015907255932688713
0	5512	0.0007228828617371619
0	5394	-0.021325301378965378
0	5374	-0.0036163749173283577
0	5406	0.0057914359495043755
0	5392	-0.002535435603931546
0	5448	0.010148849338293076
0	5432	-0.002900617429986596
0	5862	0.07798519730567932
0	6452	0.1067667156457901
0	5654	-0.14359404146671295
1	4222	-0.2574273943901062
0	4770	0.09928136318922043
0	5248	0.08699028193950653
0	5586	0.06160688400268555
0	5696	0.020039835944771767
0	5724	0.005095232278108597
0	5740	0.002907857298851013
0	5750	0.001815035822801292
0	5734	-0.002900267019867897
0	5744	0.0018101513851433992
0	5722	-0.00397719768807292
0	5734	0.0021666386164724827
0	5728	-0.0010819127783179283
0	5708	-0.0036019161343574524
0	5722	0.002518982393667102
0	5750	0.00503277312964201
0	5816	0.01185841765254736
0	5824	0.001436592428945005
0	5808	-0.002869989490136504
0	5798	-0.0017914725467562675
0	5752	-0.008226527832448483
0	5668	-0.015000893734395504
0	5564	-0.018542291596531868
0	5446	-0.021014638245105743
0	5352	-0.016736499965190887
0	5256	-0.017096655443310738
0	5200	-0.009984428994357586
0	5200	0.0
0	5194	-0.0010754744289442897
0	5236	0.007585335057228804
0	5240	0.0007242353167384863
0	5278	0.006838222034275532
0	5304	0.00466456962749362
0	5314	0.00179346464574337
0	5336	0.0039520482532680035
0	5384	0.008641278371214867
0	5386	0.00036078941775485873
0	5444	0.010485212318599224
0	5454	0.0018111348617821932
0	5466	0.0021770417224615812
0	5486	0.0036345133557915688
0	5486	0.0
0	5524	0.0069258809089660645
0	5514	-0.0018248618580400944
0	5532	0.00328863225877285
0	5502	-0.005487402901053429
0	5498	-0.0007327618077397346
0	5508	0.0018354685744270682
0	5520	0.002206828910857439
0	5526	0.0011053659254685044
0	5534	0.001476287143304944
0	5524	-0.0018478367710486054
0	5526	0.00036989545333199203
0	5516	-0.0018499105935916305
0	5530	0.002588757313787937
0	5510	-0.003694172017276287
0	5534	0.004426084458827972
0	5524	-0.0018404230941087008
0	5534	0.0018367720767855644
0	5518	-0.002932730596512556
0	5514	-0.0007319215219467878
0	5526	0.00219210097566247
0	5542	0.0029183942824602127
0	5564	0.00400699395686388
0	5670	0.019277166575193405
0	5660	-0.0018149259267374873
0	5638	-0.003986181225627661
0	5590	-0.008683905936777592
0	5494	-0.017352532595396042
0	5438	-0.01011987216770649
0	5348	-0.016266824677586555
0	5358	0.0018089289078488946
0	5426	0.012310217134654522
0	5428	0.00036227944656275213
0	5642	0.03878404200077057
0	6428	0.14235520362854004
0	5702	-0.1307574063539505
1	4104	-0.28745830059051514
0	5008	0.16399787366390228
0	5378	0.06733148545026779
0	5648	0.04917794093489647
0	5688	0.0072805811651051044
0	5724	0.006546010263264179
0	5706	-0.0032690817024558783
0	5708	0.0003628139675129205
0	5730	0.003986662719398737
0	5726	-0.0007238858379423618
0	5742	0.002892193617299199
0	5720	-0.003971549216657877
0	5736	0.00288517028093338
0	5780	0.007923834957182407
0	5786	0.0010788004146888852
0	5818	0.00574465049430728
0	5858	0.00716897239908576
0	5876	0.003220381448045373
0	5840	-0.006432860158383846
0	5806	-0.006068971939384937
0	5746	-0.010699255391955376
0	5650	-0.01710294932126999
0	5520	-0.023138809949159622
0	5328	-0.03415762260556221
0	5244	-0.014945732429623604
0	5234	-0.0017804577946662903
0	5204	-0.005347466561943293
0	5216	0.002141837263479829
0	5270	0.009662757627665997
0	5262	-0.0014414760516956449
0	5294	0.005781182087957859
0	5318	0.004305035807192326
0	5360	0.007519873790442944
0	5380	0.0035812770947813988
0	5394	0.0025109106209129095
0	5442	0.008623993955552578
0	5458	0.0028795276302844286
0	5492	0.006128113251179457
0	5500	0.0014437827048823237
0	5516	0.002891566138714552
0	5526	0.0018095179693773389
0	5516	-0.0018118786392733455
0	5506	-0.0018141136970371008
0	5528	0.00399660924449563
0	5514	-0.0025471835397183895
0	5518	0.0007289692293852568
0	5518	0.0
0	5510	-0.001463628839701414
0	5502	-0.0014669030206277966
0	5530	0.005144789349287748
0	5544	0.002576750237494707
0	5502	-0.0077398428693413734
0	5538	0.006640187930315733
0	5520	-0.0033197265584021807
0	5522	0.00036842364352196455
0	5536	0.0025745707098394632
0	5506	-0.005506742745637894
0	5502	-0.0007328781648539007
0	5530	0.005121201742440462
0	5574	0.00803486630320549
0	5594	0.003645289223641157
0	5688	0.01710168831050396
0	5710	0.003993561957031488
0	5662	-0.008694812655448914
0	5628	-0.006148356478661299
0	5516	-0.020224880427122116
0	5482	-0.006136962212622166
0	5394	-0.015881609171628952
0	5414	0.0036115858238190413
0	5428	0.002529419492930174
0	5462	0.006146133411675692
0	5462	0.0
0	5676	0.03871200978755951
0	6544	0.15685802698135376
0	6242	-0.054243054240942
1	4740	-0.26860761642456055
0	4762	0.003952663857489824
0	5116	0.06389123201370239
0	5452	0.06078660860657692
0	5632	0.03257407620549202
0	5676	0.007957655936479568
0	5692	0.0028913922142237425
0	5676	-0.0028880867175757885
0	5668	-0.0014428452122956514
0	5690	0.0039642974734306335
0	5680	-0.001800136873498559
0	5674	-0.001079149660654366
0	5684	0.0017967730527743697
0	5694	0.0017948165768757463
0	5728	0.00609639473259449
0	5716	-0.002149689942598343
0	5744	0.0050122919492423534
0	5774	0.0053685191087424755
0	5806	0.005724234972149134
0	5804	-0.00035745775676332414
0	5798	-0.0010712500661611557
0	5728	-0.012476976960897446
0	5668	-0.010678944177925587
0	5550	-0.020967837423086166
0	5400	-0.026632575318217278
0	5328	-0.012785756029188633
0	5246	-0.014573114924132824
0	5202	-0.007829738780856133
0	5168	-0.006067311856895685
0	5180	0.0021590760443359613
0	5194	0.002535068430006504
0	5248	0.009751399978995323
0	5238	-0.0018005473539233208
0	5260	0.003958305809646845
0	5316	0.010087303817272186
0	5318	0.00036094567622058094
0	5386	0.012298639863729477
0	5414	0.005073505453765392
0	5432	0.003266708692535758
0	5410	-0.003998352214694023
0	5482	0.013107751496136189
0	5478	-0.0007290843641385436
0	5492	0.0025548378471285105
0	5496	0.0007308071944862604
0	5494	-0.0003658447531051934
0	5514	0.003663674695417285
0	5510	-0.0007336398120969534
0	5476	-0.006244872231036425
0	5494	0.003312152111902833
0	5486	-0.001474890043027699
0	5470	-0.0029555559158325195
0	5506	0.006663458421826363
0	5494	-0.002224199241027236
0	5500	0.0011132964864373207
0	5470	-0.0055682044476270676
0	5506	0.006678952369838953
0	5492	-0.0025945145171135664
0	5486	-0.0011102475691586733
0	5506	0.0036943538580089808
0	5504	-0.00036866814480163157
0	5482	-0.004047291819006205
0	5550	0.01248775701969862
0	5562	0.0021996553987264633
0	5626	0.011708316393196583
0	5686	0.010952102951705456
0	5622	-0.011656002141535282
0	5556	-0.011998109519481659
0	5508	-0.008716918528079987
0	5442	-0.01197894662618637
0	5402	-0.007259528152644634
0	5388	-0.0025409578811377287
0	5440	0.009443213231861591
0	5456	0.002906272653490305
0	5398	-0.010537535883486271
0	5884	0.08834971487522125
0	6582	0.12658992409706116
0	5864	-0.12938180565834045
1	4328	-0.27619606256484985
0	4840	0.09270323812961578
0	5164	0.05889623984694481
0	5488	0.05901137739419937
0	5628	0.02549595572054386
0	5678	0.0090989600867033
0	5678	0.0
0	5656	-0.003994770348072052
0	5662	0.0010882577626034617
0	5670	0.0014496430521830916
0	5710	0.0072404309175908566
0	5688	-0.003976861946284771
0	5668	-0.0036113683599978685
0	5686	0.003247026586905122
0	5692	0.0010810161475092173
0	5732	0.007200633175671101
0	5774	0.00755296042189002
0	5798	0.0043121520429849625
0	5796	-0.00035910512087866664
0	5802	0.001076194574125111
0	5758	-0.007880503311753273
0	5714	-0.007868758402764797
0	5570	-0.025710614398121834
0	5448	-0.0217608455568552
0	5276	-0.030668284744024277
0	5194	-0.014635191299021244
0	5204	0.0017875656485557556
0	5178	-0.004653049632906914
0	5180	0.0003594406880438328
0	5200	0.0036248518154025078
0	5236	0.006551012862473726
0	5246	0.0018097581341862679
0	5240	-0.0010832019615918398
0	5284	0.007939849980175495
0	5300	0.0028907652013003826
0	5344	0.007965339347720146
0	5392	0.008707009255886078
0	5402	0.0018171025440096855
0	5440	0.006915629375725985
0	5462	0.004009184893220663
0	5466	0.0007298648124560714
0	5498	0.005847597029060125
0	5482	-0.0029271862003952265
0	5498	0.0029305103234946728
0	5506	0.0014669388765469193
0	5486	-0.0036715210881084204
0	5500	0.0025739395059645176
0	5492	-0.001473296550102532
0	5496	0.0007380346651189029
0	5518	0.004066694062203169
0	5490	-0.005184865090996027
0	5504	0.0025967282708734274
0	5510	0.0011143302544951439
0	5512	0.00037158146733418107
0	5504	-0.0014857369242236018
0	5496	-0.001483642845414579
0	5516	0.0037021953612565994
0	5498	-0.0033255736343562603
0	5492	-0.001106344279833138
0	5498	0.0011042268015444279
0	5510	0.002204423537477851
0	5530	0.0036678852047771215
0	5552	0.0040276809595525265
0	5598	0.008405511267483234
0	5642	0.008024705573916435
0	5626	-0.002912020543590188
0	5586	-0.007267618086189032
0	5528	-0.010525678284466267
0	5456	-0.013056408613920212
0	5390	-0.011967216618359089
0	5340	-0.009070021100342274
0	5380	0.0072615486569702625
0	5414	0.00617672735825181
0	5432	0.003271379042416811
0	5502	0.012727118097245693
0	6206	0.12800155580043793
0	6142	-0.011585948057472706
1	5130	-0.18249578773975372
0	4376	-0.13626670837402344
0	4950	0.10444086045026779
0	5338	0.0708416998386383
0	5632	0.053728725761175156
0	5706	0.013513019308447838
0	5722	0.0029182524885982275
0	5688	-0.0061933789402246475
0	5716	0.005094737745821476
0	5686	-0.005451373755931854
0	5676	-0.0018152553820982575
0	5692	0.002901284024119377
0	5672	-0.0036222259514033794
0	5682	0.001809212495572865
0	5712	0.005422013346105814
0	5690	-0.003971788100898266
0	5744	0.009740845300257206
0	5788	0.007930023595690727
0	5842	0.00972377322614193
0	5802	-0.007193468045443296
0	5792	-0.001796041615307331
0	5766	-0.004662339109927416
0	5692	-0.013245191425085068
0	5600	-0.016437377780675888
0	5506	-0.016768746078014374
0	5338	-0.02994723618030548
0	5258	-0.014267031103372574
0	5232	-0.004641586448997259
0	5218	-0.0025033378042280674
0	5242	0.00431685708463192
0	5268	0.004701967351138592
0	5270	0.00036138916038908064
0	5326	0.010064701549708843
0	5358	0.005738332401961088
0	5384	0.004661837127059698
0	5392	0.0014365408569574356
0	5386	-0.0010794342961162329
0	5452	0.01189775113016367
0	5432	-0.0036104994360357523
0	5460	0.005063352175056934
0	5468	0.0014486454892903566
0	5506	0.0068897162564098835
0	5500	-0.001089074183255434
0	5520	0.0036340290680527687
0	5530	0.0018187990644946694
0	5522	-0.0014566464815288782
0	5526	0.0007290666690096259
0	5522	-0.0007300335564650595
0	5510	-0.0021936504635959864
0	5540	0.005495243705809116
0	5538	-0.00036693658330477774
0	5496	-0.007717655971646309
0	5532	0.00662609189748764
0	5528	-0.0007369558443315327
0	5532	0.000737281865440309
0	5510	-0.004054402466863394
0	5508	-0.00036819305387325585
0	5536	0.0051468065939843655
0	5540	0.0007338910945691168
0	5532	-0.0014648974174633622
0	5524	-0.0014623090391978621
0	5538	0.002555055310949683
0	5510	-0.0051017929799854755
0	5494	-0.0029120559338480234
0	5572	0.01418456993997097
0	5570	-0.00036329287104308605
0	5702	0.023951515555381775
0	5694	-0.0014488379238173366
0	5624	-0.01265883818268776
0	5608	-0.002890103729441762
0	5530	-0.014076711609959602
0	5498	-0.005772908218204975
0	5378	-0.021649446338415146
0	5394	0.00288871256634593
0	5398	0.0007227261085063219
0	5416	0.003254855051636696
0	5466	0.009047044441103935
0	5452	-0.002534089609980583
0	5996	0.09850908070802689
0	6174	0.03213847428560257
1	4978	-0.2151208221912384
0	4384	-0.10720086842775345
0	4960	0.10465243458747864
0	5418	0.08350248634815216
0	5662	0.04451579973101616
0	5710	0.008750288747251034
0	5716	0.001092458376660943
0	5742	0.004728017840534449
0	5714	-0.005085361655801535
0	5710	-0.0007257157703861594
0	5712	0.0003624676901381463
0	5702	-0.0018102823523804545
0	5724	0.003978683613240719
0	5722	-0.0003612325235735625
0	5706	-0.0028858985751867294
0	5714	0.0014417878119274974
0	5724	0.001800677040591836
0	5758	0.00612149341031909
0	5782	0.004319394938647747
0	5836	0.009709435515105724
0	5828	-0.001436471939086914
0	5806	-0.003943264950066805
0	5772	-0.006082942709326744
0	5664	-0.019276993349194527
0	5576	-0.01568198949098587
0	5418	-0.028126556426286697
0	5258	-0.02848225273191929
0	5216	-0.007485830225050449
0	5182	-0.006068466696888208
0	5216	0.006097998470067978
0	5216	0.0
0	5224	0.001441025990061462
0	5290	0.011828804388642311
0	5322	0.005723893642425537
0	5326	0.000715896487236023
0	5372	0.008249345235526562
0	5370	-0.00035939336521551013
0	5424	0.00972377322614193
0	5448	0.00432994170114398
0	5450	0.0003614066226873547
0	5450	0.0
0	5472	0.0039880117401480675
0	5474	0.0003630510764196515
0	5486	0.002181606600061059
0	5504	0.0032770968973636627
0	5500	-0.0007291375659406185
0	5482	-0.0032853910233825445
0	5508	0.004752561915665865
0	5502	-0.001098418259061873
0	5516	0.002567362505942583
0	5532	0.0029398794285953045
0	5514	-0.0033133714459836483
0	5530	0.00295050535351038
0	5514	-0.0029549007304012775
0	5482	-0.005915263667702675
0	5538	0.010357710532844067
0	5504	-0.006283960770815611
0	5528	0.004429025109857321
0	5506	-0.004052162170410156
0	5538	0.0058823530562222
0	5534	-0.0007338462164625525
0	5506	-0.005126953125
0	5518	0.0021934902761131525
0	5490	-0.005111043341457844
0	5514	0.004376421216875315
0	5528	0.0025499979965388775
0	5564	0.006550933700054884
0	5562	-0.00036351298331283033
0	5646	0.015254790894687176
0	5724	0.01414820458739996
0	5642	-0.014849153347313404
0	5600	-0.007596859708428383
0	5518	-0.014820527285337448
0	5500	-0.003252424066886306
0	5406	-0.016983451321721077
0	5386	-0.003615634050220251
0	5410	0.004341743420809507
0	5434	0.004343629349023104
0	5466	0.005794092547148466
0	5422	-0.007968608289957047
0	5918	0.08987895399332047
0	6372	0.08207686990499496
1	5508	-0.15539568662643433
0	4312	-0.21513628959655762
0	4964	0.1181330606341362
0	5490	0.09560275822877884
0	5698	0.0378158874809742
0	5732	0.00617418484762311
0	5744	0.002176436362788081
0	5726	-0.0032599640544503927
0	5738	0.0021708456333726645
0	5712	-0.004697719588875771
0	5738	0.0046918983571231365
0	5732	-0.0010813148692250252
0	5726	-0.0010797451250255108
0	5730	0.0007189158932305872
0	5728	-0.00035902345553040504
0	5752	0.004304057918488979
0	5772	0.0035826456733047962
0	5836	0.011455847881734371
0	5846	0.0017887807916849852
0	5800	-0.008218394592404366
0	5810	0.0017844821559265256
0	5764	-0.008194385096430779
0	5666	-0.017430279403924942
0	5526	-0.024862073361873627
0	5374	-0.02697075717151165
0	5262	-0.019877422600984573
0	5228	-0.006040364038199186
0	5152	-0.013521046377718449
0	5158	0.0010691629722714424
0	5212	0.00966610200703144
0	5214	0.0003604989324230701
0	5248	0.006139326374977827
0	5290	0.0075413878075778484
0	5314	0.004300972446799278
0	5340	0.004664290696382523
0	5374	0.0061125424690544605
0	5414	0.007206687703728676
0	5446	0.005776798818260431
0	5454	0.0014466370921581984
0	5466	0.002173676621168852
0	5496	0.005442275665700436
0	5502	0.001090050209313631
0	5504	0.00036385690327733755
0	5490	-0.0025504317600280046
0	5500	0.0018243958475068212
0	5500	0.0
0	5504	0.0007318947464227676
0	5530	0.004765104502439499
0	5512	-0.003305097110569477
0	5498	-0.0025758969131857157
0	5512	0.0025806769262999296
0	5516	0.0007386888028122485
0	5494	-0.004069000482559204
0	5538	0.008146639913320541
0	5514	-0.004443292506039143
0	5536	0.0040695019997656345
0	5510	-0.004801299888640642
0	5506	-0.0007373815169557929
0	5506	0.0
0	5514	0.0014684287598356605
