0	5606	0.011869791895151138
0	5608	0.0003592685388866812
0	5694	0.015428407117724419
0	5746	0.009312543086707592
0	5824	0.013937863521277905
0	5958	0.023904666304588318
0	6064	0.01886792480945587
0	6174	0.019522469490766525
0	6292	0.02086476795375347
0	6320	0.004928304813802242
0	6310	-0.00175104767549783
0	6120	-0.033094510436058044
0	6008	-0.019426006823778152
0	5772	-0.040808796882629395
0	5532	-0.04142359271645546
0	5210	-0.055554915219545364
0	4962	-0.042866528034210205
0	4880	-0.014224258251488209
0	4742	-0.024075085297226906
0	4746	0.0007052849396131933
0	4772	0.0046579958871006966
0	4820	0.00865988340228796
0	4956	0.024547258391976357
0	4960	0.0007229873444885015
0	5054	0.01702261157333851
0	5112	0.010518551804125309
0	5182	0.012717252597212791
0	5248	0.012005820870399475
0	5282	0.006192928180098534
0	5366	0.015319707803428173
0	5370	0.0007302823360078037
0	5362	-0.0014626653864979744
0	5424	0.011352677829563618
0	5398	-0.004768658895045519
0	5450	0.009557652287185192
0	5432	-0.0033160161692649126
0	5432	0.0
0	5456	0.004453020635992289
0	5424	-0.005963844247162342
0	5484	0.011242832988500595
0	5440	-0.008288021199405193
0	5440	0.0
0	5408	-0.006086890120059252
0	5404	-0.0007637668750248849
0	5558	0.029474060982465744
0	5614	0.010716062970459461
0	5680	0.012597182765603065
0	5574	-0.02013983763754368
0	5570	-0.0007566681015305221
0	5486	-0.0158075001090765
0	5454	-0.005994080565869808
0	5486	0.0059686643071472645
0	5462	-0.004458038602024317
0	5502	0.00740685872733593
0	5508	0.0011073242640122771
0	5534	0.0047850413247942924
0	5624	0.01652083545923233
0	5822	0.03624780476093292
0	6682	0.156890407204628
0	7350	0.12083498388528824
1	5472	-0.335696816444397
0	4900	-0.10218421369791031
0	5178	0.04979996383190155
0	5248	0.01255800575017929
0	5340	0.01651962660253048
0	5400	0.010780766606330872
0	5430	0.005391417071223259
0	5508	0.01401785109192133
0	5534	0.004671161994338036
0	5578	0.00789983943104744
0	5582	0.0007177634397521615
0	5648	0.011833046562969685
0	5728	0.014325279742479324
0	5786	0.010366027243435383
0	5872	0.015335418283939362
0	5966	0.016730742529034615
0	6114	0.026287121698260307
0	6232	0.020904935896396637
0	6288	0.00988258607685566
0	6324	0.006326370406895876
0	6278	-0.008044208399951458
0	6152	-0.021928805857896805
0	6002	-0.026005245745182037
0	5804	-0.0342201367020607
0	5548	-0.044167377054691315
0	5296	-0.043467260897159576
0	5138	-0.027290629222989082
0	4934	-0.03533487021923065
0	4824	-0.01915130764245987
0	4802	-0.003872012486681342
0	4784	-0.0032160852570086718
0	4852	0.01219964399933815
0	4884	0.005742656998336315
0	4992	0.019415615126490593
0	5044	0.009362621232867241
0	5124	0.0144296670332551
0	5224	0.018067065626382828
0	5242	0.0032561111729592085
0	5320	0.014132482931017876
0	5340	0.0036284029483795166
0	5378	0.006903902627527714
0	5414	0.006548629608005285
0	5394	-0.0036432971246540546
0	5414	0.003650700906291604
0	5402	-0.0021953897085040808
0	5422	0.003669500118121505
0	5398	-0.004418099299073219
0	5394	-0.0007395993452519178
0	5404	0.0018585978541523218
0	5404	0.0
0	5382	-0.004135130904614925
0	5398	0.003024345962330699
0	5386	-0.002279086969792843
0	5468	0.015634732320904732
0	5566	0.018725398927927017
0	5594	0.005349500570446253
0	5600	0.001144150155596435
0	5556	-0.008365866728127003
0	5528	-0.005302829202264547
0	5444	-0.015838099643588066
0	5470	0.004882567562162876
0	5472	0.00037397624691948295
0	5456	-0.0029802927747368813
0	5490	0.006310709752142429
0	5494	0.0007401559269055724
0	5578	0.01550025213509798
0	5846	0.049315471202135086
0	6518	0.12318672239780426
0	7364	0.15388347208499908
1	5384	-0.35574403405189514
0	4940	-0.0797518864274025
0	5218	0.050066035240888596
0	5336	0.021276084706187248
0	5348	0.002164423931390047
0	5432	0.015156983397901058
0	5440	0.0014432617463171482
0	5464	0.004329316783696413
0	5534	0.012622164562344551
0	5516	-0.0032429704442620277
0	5646	0.023405710235238075
0	5652	0.001078696921467781
0	5732	0.01435939222574234
0	5788	0.01003152783960104
0	5818	0.00536116398870945
0	5972	0.027463382109999657
0	6070	0.01743461936712265
0	6202	0.023417264223098755
0	6306	0.018384519964456558
0	6316	0.0017599643906578422
0	6284	-0.0056059700436890125
0	6104	-0.03137965872883797
0	5962	-0.024664195254445076
0	5718	-0.04226084053516388
0	5470	-0.04288876801729202
0	5210	-0.044969212263822556
0	5000	-0.03638085722923279
0	4852	-0.025725707411766052
0	4782	-0.01223804708570242
0	4758	-0.004238784778863192
0	4810	0.009327131323516369
0	4876	0.011879049241542816
0	4964	0.015844816341996193
0	5070	0.019114943221211433
0	5108	0.00686350092291832
0	5240	0.023876134306192398
0	5256	0.0028974309097975492
0	5306	0.009064539335668087
0	5340	0.006169777829200029
0	5350	0.0018167725065723062
0	5390	0.007274402305483818
0	5346	-0.008014279417693615
0	5382	0.006569343153387308
0	5378	-0.0007314842659980059
0	5354	-0.0043999021872878075
0	5412	0.010663332417607307
0	5370	-0.0077483151108026505
0	5448	0.01445193774998188
0	5390	-0.010796588845551014
0	5404	0.0026209703646600246
0	5390	-0.0026359723415225744
0	5338	-0.009845998138189316
0	5392	0.010274363681674004
0	5530	0.026351971551775932
0	5612	0.015677178278565407
0	5624	0.0022921469062566757
0	5562	-0.011811623349785805
0	5540	-0.004176316782832146
0	5452	-0.01663285493850708
0	5494	0.007905039004981518
0	5492	-0.00037470023380592465
0	5432	-0.011193333193659782
0	5532	0.018591277301311493
0	5494	-0.007039905525743961
0	5566	0.013303933665156364
0	5836	0.049749407917261124
0	5876	0.007343401666730642
0	6710	0.1525312066078186
0	6930	0.03989458084106445
1	4940	-0.3574293851852417
0	5056	0.02088634856045246
0	5288	0.04185660555958748
0	5360	0.012994513846933842
0	5422	0.011191200464963913
0	5442	0.0036091094370931387
0	5482	0.007214399985969067
0	5508	0.0046873874962329865
0	5548	0.007205389905720949
0	5594	0.008281225338578224
0	5624	0.0053941961377859116
0	5688	0.011492463760077953
0	5770	0.01469850167632103
0	5754	-0.0028606164269149303
0	5928	0.03104223497211933
0	5974	0.008187190629541874
0	6170	0.034809790551662445
0	6294	0.021951565518975258
0	6326	0.005640555173158646
0	6338	0.002105484716594219
0	6226	-0.019549887627363205
0	6108	-0.02050984837114811
0	5868	-0.041566599160432816
0	5660	-0.03593393787741661
0	5446	-0.03694326430559158
0	5178	-0.046278174966573715
0	4996	-0.03149806335568428
0	4854	-0.024695079773664474
0	4802	-0.009097164496779442
0	4774	-0.004953589290380478
0	4832	0.010393147356808186
0	4890	0.010399856604635715
0	4950	0.010769156739115715
0	5082	0.023740151897072792
0	5136	0.009728094562888145
0	5262	0.022737937048077583
0	5288	0.004697041120380163
0	5364	0.013745870441198349
0	5388	0.004344572778791189
0	5420	0.005798362195491791
0	5446	0.004716125316917896
0	5442	-0.0007263394654728472
0	5390	-0.009456493891775608
0	5382	-0.0014582041185349226
0	5334	-0.00876904558390379
0	5382	0.008800880052149296
0	5368	-0.002576244529336691
0	5370	0.00036985441693104804
0	5364	-0.0011159192072227597
0	5340	-0.004490457940846682
0	5390	0.00941371452063322
0	5380	-0.0018926728516817093
0	5434	0.0102675911039114
0	5572	0.026311775669455528
0	5544	-0.005341608542948961
0	5564	0.0038130583707243204
0	5480	-0.015975655987858772
0	5414	-0.012513904832303524
0	5414	0.0
0	5396	-0.003387788776308298
0	5372	-0.004499494098126888
0	5404	0.005979148205369711
0	5404	0.0
0	5504	0.018572861328721046
0	5792	0.05335045978426933
0	5650	-0.0261986181139946
0	6004	0.06515657156705856
0	6476	0.08649547398090363
1	5032	-0.2628321945667267
0	5032	0.0
0	5362	0.060337889939546585
0	5480	0.021586420014500618
0	5556	0.01389989722520113
0	5558	0.0003654169267974794
0	5604	0.008395589888095856
0	5650	0.008381822146475315
0	5690	0.007276696152985096
0	5744	0.009804395958781242
0	5768	0.004347668495029211
0	5808	0.007228480651974678
0	5922	0.020543254911899567
0	5976	0.009700017981231213
0	6062	0.015393243171274662
0	6246	0.03281144052743912
0	6316	0.012432803399860859
0	6310	-0.0010608204174786806
0	6278	-0.005632943473756313
0	6082	-0.03434097766876221
0	5848	-0.04083959758281708
0	5644	-0.03551408275961876
0	5418	-0.039287492632865906
0	5202	-0.037539102137088776
0	5024	-0.030971243977546692
0	4846	-0.031039653345942497
0	4762	-0.014704166911542416
0	4766	0.0007044320227578282
0	4776	0.0017702665645629168
0	4908	0.02353808470070362
0	5058	0.0269994605332613
0	5134	0.013677593320608139
0	5156	0.003956882283091545
0	5238	0.014766614884138107
0	5314	0.013706041499972343
0	5306	-0.0014448431320488453
0	5340	0.0061499131843447685
0	5324	-0.0028986907564103603
0	5286	-0.0068979705683887005
0	5318	0.005823052022606134
0	5342	0.0043786028400063515
0	5304	-0.006950795650482178
0	5336	0.005871343892067671
0	5346	0.0018413945799693465
0	5440	0.017376301810145378
0	5542	0.01892768032848835
0	5592	0.009318853728473186
0	5604	0.002246629912406206
0	5548	-0.01053067110478878
0	5488	-0.011334726586937904
0	5410	-0.014790468849241734
0	5402	-0.001521182362921536
0	5452	0.009521995671093464
0	5466	0.00266558350995183
0	5458	-0.0015206427779048681
0	5524	0.01251089945435524
0	5580	0.010570026002824306
0	6058	0.08976076543331146
0	6058	0.0
0	6798	0.1367567628622055
1	5078	-0.3142088055610657
0	4998	-0.014612583443522453
0	5380	0.06983291357755661
0	5454	0.013509402051568031
0	5532	0.01422094739973545
0	5550	0.003277414944022894
0	5622	0.013090274296700954
0	5636	0.002540988614782691
0	5650	0.00253620115108788
0	5660	0.0018075990956276655
0	5692	0.005772422067821026
0	5788	0.017280898988246918
0	5780	-0.001435904880054295
0	5868	0.01575310528278351
0	5956	0.015704190358519554
0	6056	0.017791062593460083
0	6174	0.02092965506017208
0	6276	0.018029695376753807
0	6404	0.022536268457770348
0	6386	-0.0031533215660601854
0	6358	-0.004879578948020935
0	6202	-0.027037333697080612
0	6012	-0.03277858719229698
0	5722	-0.049869880080223083
0	5454	-0.046019118279218674
0	5222	-0.039838358759880066
0	5006	-0.03715511038899422
0	4792	-0.03693263605237007
0	4778	-0.0024338795337826014
0	4744	-0.00595502182841301
0	4816	0.012763693928718567
0	4870	0.009587614797055721
0	4954	0.014925372786819935
0	5130	0.03135131299495697
0	5196	0.011779404245316982
0	5304	0.01931399665772915
0	5354	0.008954796008765697
0	5394	0.007175317034125328
0	5470	0.013652858324348927
0	5448	-0.003956407308578491
0	5432	-0.0028810487128794193
0	5448	0.002885551890358329
0	5422	-0.004698625300079584
0	5486	0.011590843088924885
0	5448	-0.0068979705683887005
0	5442	-0.0010925114620476961
0	5450	0.0014621308073401451
0	5476	0.004772977437824011
0	5616	0.025827081874012947
0	5606	-0.0018537743017077446
0	5646	0.007451009936630726
0	5626	-0.0037420482840389013
0	5562	-0.012017725966870785
0	5524	-0.007155679631978273
0	5534	0.00188541691750288
0	5516	-0.0033920451533049345
0	5570	0.010157376527786255
0	5552	-0.003373861312866211
0	5660	0.020147498697042465
0	5692	0.005937066860496998
0	6088	0.07304296642541885
0	6214	0.023060591891407967
0	6796	0.10565170645713806
0	5970	-0.1482926607131958
1	4910	-0.18935108184814453
0	5428	0.09268979728221893
0	5560	0.023602336645126343
0	5628	0.012143868952989578
0	5612	-0.0028534061275422573
0	5680	0.012116747908294201
0	5676	-0.0007117690984159708
0	5636	-0.007107404991984367
0	5562	-0.013134073466062546
0	5600	0.0067389425821602345
0	5800	0.0354442335665226
0	5828	0.004951896145939827
0	5802	-0.004587749484926462
0	5930	0.022539179772138596
0	5970	0.007024773862212896
0	6088	0.020680228248238564
0	6138	0.008738202974200249
0	6174	0.006273525767028332
0	6208	0.005906195845454931
0	6112	-0.016614170745015144
0	6038	-0.012763462029397488
0	5934	-0.01788601092994213
0	5670	-0.04529441520571709
0	5444	-0.03875260055065155
0	5070	-0.06417002528905869
0	4876	-0.03339875116944313
0	4730	-0.025253398343920708
0	4590	-0.024406684562563896
0	4608	0.003167898626998067
0	4620	0.002139393240213394
0	5296	0.1214938685297966
0	5382	0.015420662239193916
0	5368	-0.0025110305286943913
0	5240	-0.022984378039836884
0	5154	-0.015478575602173805
0	5194	0.007219174411147833
0	5092	-0.018462873995304108
0	5260	0.0305169727653265
0	5400	0.02548883855342865
0	5332	-0.012392476201057434
0	5502	0.031031712889671326
0	5502	0.0
0	5474	-0.005130585283041
0	5390	-0.015422654338181019
0	5348	-0.007736896630376577
0	5276	-0.01331410277634859
0	5212	-0.011894289404153824
0	5374	0.030281128361821175
0	5338	-0.0067628491669893265
0	5428	0.016999734565615654
0	5404	-0.004552870057523251
0	5322	-0.01561825443059206
0	5298	-0.004589027259498835
0	5246	-0.009966522455215454
0	5244	-0.0003838133125100285
0	5334	0.017252396792173386
0	5348	0.0026758750900626183
0	5356	0.001523074577562511
0	5408	0.009852091781795025
0	5752	0.06484774500131607
0	6382	0.11792305111885071
0	7096	0.1327466517686844
1	5842	-0.2306928187608719
0	4658	-0.2171839475631714
0	5004	0.06369426846504211
0	5178	0.03206073120236397
0	5262	0.015479115769267082
0	5302	0.007363317999988794
0	5418	0.021348120644688606
0	5424	0.0011040912941098213
0	5496	0.013241623528301716
0	5512	0.0029426910914480686
0	5508	-0.0007356277201324701
0	5574	0.01213532779365778
0	5608	0.006244490388780832
0	5682	0.013569350354373455
0	5766	0.015364916995167732
0	5834	0.012396392412483692
0	5942	0.01963350921869278
0	6108	0.030067380517721176
0	6174	0.01190562080591917
0	6212	0.00682316068559885
0	6116	-0.017146123573184013
0	6086	-0.005332195665687323
0	5826	-0.04598351567983627
0	5684	-0.025028200820088387
0	5404	-0.04925010725855827
0	5216	-0.0330570749938488
0	4992	-0.039419498294591904
0	4948	-0.0077620577067136765
0	4936	-0.0021269808057695627
0	4828	-0.019307779148221016
0	4856	0.005074302200227976
0	4932	0.01385563425719738
0	4924	-0.001456063357181847
0	5052	0.023308325558900833
0	5152	0.018223566934466362
0	5280	0.023341761901974678
0	5300	0.003647638252004981
0	5368	0.012410872615873814
0	5440	0.013145402073860168
0	5402	-0.006940216291695833
0	5232	-0.03106914460659027
0	4898	-0.06114453822374344
0	5580	0.12536919116973877
0	5842	0.04817061871290207
0	5736	-0.019469784572720528
0	5592	-0.0264543779194355
0	5502	-0.01655852608382702
0	5510	0.0014758514007553458
0	5548	0.007036168593913317
0	5460	-0.016357485204935074
0	5108	-0.06573623418807983
0	5474	0.06878233700990677
0	5250	-0.04225830361247063
0	5366	0.021963318809866905
0	5484	0.022386927157640457
0	5496	0.002275485312566161
0	5444	-0.009843016974627972
0	5318	-0.023782558739185333
0	5434	0.021844202652573586
0	5888	0.08522727340459824
0	6434	0.1018226146697998
0	7262	0.15291234850883484
1	5908	-0.24651649594306946
0	4638	-0.2298503816127777
0	5088	0.08164697140455246
0	5166	0.014157622121274471
0	5196	0.005448997486382723
0	5308	0.020355740562081337
0	5324	0.002909020520746708
0	5434	0.020013585686683655
0	5442	0.0014552510110661387
0	5402	-0.007267001550644636
0	5494	0.016663245856761932
0	5480	-0.002537028631195426
0	5596	0.02106715925037861
0	5586	-0.0018176750745624304
0	5660	0.013451283797621727
0	5848	0.034140847623348236
0	6006	0.02863425388932228
0	6258	0.045543815940618515
0	6366	0.019425392150878906
0	6330	-0.006426658947020769
0	6312	-0.0031970443669706583
0	6072	-0.04236091300845146
0	5962	-0.019335106015205383
0	5676	-0.050130877643823624
0	5404	-0.04762682691216469
0	5172	-0.04063237085938454
0	4968	-0.03575894236564636
0	4898	-0.012303725816309452
0	4764	-0.023690257221460342
0	4808	0.007856207899749279
0	4856	0.008697438053786755
0	4790	-0.012035449966788292
0	4978	0.034251149743795395
0	5030	0.009480055421590805
0	5014	-0.0029193530790507793
0	5388	0.06831549108028412
0	5424	0.006572621408849955
0	5462	0.006933547090739012
0	5470	0.0014594456879422069
0	5600	0.023711953312158585
0	5614	0.0025505246594548225
0	5550	-0.011651050299406052
0	5576	0.004731229972094297
0	5486	-0.01637932099401951
0	5472	-0.0025494410656392574
0	5488	0.0029169756453484297
0	5442	-0.008404691703617573
0	5506	0.01173378899693489
0	5632	0.02320755459368229
0	5682	0.009251036681234837
0	5682	0.0
0	5538	-0.02685464732348919
0	5552	0.0026195645332336426
0	5448	-0.019509511068463326
0	5420	-0.005260060075670481
0	5366	-0.010143385268747807
0	5392	0.004877926781773567
0	5416	0.004490794148296118
0	5342	-0.013802021741867065
0	5516	0.03233719989657402
0	5790	0.05069943144917488
0	6010	0.040474411100149155
0	6738	0.13293889164924622
0	6840	0.018428627401590347
1	4884	-0.3495853543281555
0	4804	-0.01430905144661665
0	5136	0.05959004908800125
0	5118	-0.0032363624777644873
0	5320	0.036394208669662476
0	5252	-0.012262563221156597
0	5282	0.005421294830739498
0	5266	-0.002897151280194521
0	5324	0.010520205833017826
0	5470	0.026522308588027954
0	5596	0.02289133332669735
0	5670	0.013434028252959251
0	5640	-0.005440236069262028
0	5780	0.02535741776227951
0	5784	0.000723301141988486
0	5914	0.02348577044904232
0	6068	0.02778278850018978
0	6174	0.019078930839896202
0	6252	0.013985846191644669
0	6302	0.008927933871746063
0	6168	-0.023805858567357063
0	6006	-0.02865329571068287
0	5736	-0.04757597669959068
0	5466	-0.04748003929853439
0	5278	-0.03305048868060112
0	5064	-0.03763541579246521
0	4956	-0.01904403604567051
0	4832	-0.02197308838367462
0	4730	-0.018201284110546112
0	4760	0.005418031010776758
0	4772	0.0021946937777101994
0	4918	0.026720350608229637
0	4970	0.009510223753750324
0	5020	0.009153708815574646
0	5152	0.024180252104997635
0	5210	0.010635566897690296
0	5258	0.008804108947515488
0	5292	0.006237158551812172
0	5348	0.01027133408933878
0	5398	0.00916948914527893
0	5350	-0.00880658533424139
0	5402	0.009554842486977577
0	5382	-0.0036809814628213644
0	5388	0.0011060450924560428
0	5474	0.01589159294962883
0	5384	-0.01666255109012127
0	5434	0.009287350811064243
0	5454	0.003729580668732524
0	5358	-0.017982468008995056
0	5446	0.016576459631323814
0	5404	-0.007954243570566177
0	5460	0.010657058097422123
0	5588	0.024443652480840683
0	5716	0.024466702714562416
0	5694	-0.004198526963591576
0	5514	-0.03426091745495796
0	5500	-0.002657151548191905
0	5502	0.00037829115171916783
0	5596	0.01770489290356636
0	5712	0.021730443462729454
0	5618	-0.017505090683698654
0	5660	0.007780563086271286
0	5686	0.004794571083039045
0	5766	0.014687882736325264
0	6166	0.07310564815998077
0	6452	0.051949623972177505
0	7872	0.25600653886795044
1	6486	-0.24601221084594727
0	4786	-0.2996298670768738
0	5168	0.0675516426563263
0	5254	0.015228606760501862
0	5334	0.014174176380038261
0	5378	0.007798929698765278
0	5406	0.0049630724824965
0	5388	-0.0031902072951197624
0	5444	0.009930134750902653
0	5434	-0.0017726096557453275
0	5506	0.012762789614498615
0	5562	0.009923565201461315
0	5610	0.008495675399899483
0	5670	0.010609329678118229
0	5720	0.00882726814597845
0	5830	0.019390322268009186
0	6002	0.030276359990239143
0	6086	0.014761358499526978
0	6258	0.030156392604112625
0	6294	0.0062844776548445225
0	6246	-0.008340766653418541
0	6052	-0.0335659496486187
0	5876	-0.030371708795428276
0	5674	-0.034825582057237625
0	5436	-0.04101892188191414
0	5248	-0.032443251460790634
0	5026	-0.03840741887688637
0	4844	-0.031622108072042465
0	4730	-0.019960079342126846
0	4714	-0.0028298550751060247
0	4764	0.00901106558740139
0	4850	0.01566104032099247
0	4944	0.01711123436689377
0	5096	0.027706889435648918
0	5090	-0.0010947439586743712
0	5154	0.011694624088704586
0	5248	0.01719994656741619
0	5244	-0.0007326186168938875
0	5338	0.017231686040759087
0	5408	0.012840424664318562
0	5490	0.015044031664729118
0	5502	0.0022017809096723795
0	5456	-0.008443258702754974
0	5504	0.008818666450679302
0	5436	-0.012505823746323586
0	5474	0.007000736892223358
0	5468	-0.001107801334001124
0	5470	0.0003704847185872495
0	5454	-0.0029751944821327925
0	5398	-0.010465333238244057
0	5436	0.007141335867345333
0	5552	0.021911045536398888
0	5552	0.0
0	5556	0.0007594936760142446
0	5562	0.0011400919174775481
0	5530	-0.006075642071664333
0	5444	-0.01629919745028019
0	5470	0.00491468608379364
0	5478	0.001506269909441471
0	5472	-0.0011244236957281828
0	5460	-0.002238249173387885
0	5536	0.0141145009547472
0	5556	0.0036986353807151318
0	5974	0.07701094448566437
0	5836	-0.025288309901952744
0	6824	0.18022839725017548
0	6652	-0.031060386449098587
1	4672	-0.35455912351608276
0	5178	0.09091997891664505
0	5362	0.03309352695941925
0	5334	-0.005037360358983278
0	5464	0.02340964414179325
0	5484	0.0036023054271936417
0	5472	-0.002161020180210471
0	5534	0.011167415417730808
0	5546	0.0021601642947643995
0	5608	0.01115602906793356
0	5624	0.002876559505239129
0	5686	0.011136390268802643
0	5780	0.016860784962773323
0	5886	0.01896989904344082
0	5956	0.012493753805756569
0	6084	0.0227909404784441
0	6156	0.01277955248951912
0	6274	0.020870180800557137
0	6296	0.0038747857324779034
0	6270	-0.0045587909407913685
0	6130	-0.024429399520158768
0	5964	-0.028855515643954277
0	5796	-0.029121164232492447
0	5482	-0.054327141493558884
0	5286	-0.033906906843185425
0	5032	-0.04400401934981346
0	4868	-0.028498278930783272
0	4808	-0.010493423789739609
0	4794	-0.002463227603584528
0	4814	0.003561296034604311
0	4870	0.010081613436341286
0	4928	0.010429278947412968
0	4994	0.011885610409080982
0	5108	0.02057514153420925
0	5180	0.013012518174946308
0	5228	0.00868988037109375
0	5252	0.004351662937551737
0	5302	0.00907803513109684
0	5354	0.00945443008095026
0	5456	0.018566835671663284
0	5406	-0.009109791368246078
0	5414	0.0014594988897442818
0	5460	0.008406023494899273
0	5430	-0.005492895841598511
0	5416	-0.002570505253970623
0	5458	0.007737086620181799
0	5494	0.00665737921372056
0	5546	0.009655616246163845
0	5606	0.011191523633897305
0	5520	-0.01611029915511608
0	5476	-0.008281261660158634
0	5436	-0.007559436373412609
0	5390	-0.008722363971173763
0	5378	-0.0022812532261013985
0	5432	0.01027240976691246
0	5488	0.01064301561564207
0	5470	-0.0034111151471734047
0	5550	0.015103079378604889
0	5786	0.04434701055288315
0	6084	0.055651698261499405
0	6538	0.0841197669506073
0	6672	0.024575132876634598
1	4874	-0.32626843452453613
0	5040	0.030144549906253815
0	5252	0.03851371258497238
0	5358	0.019248463213443756
0	5388	0.005443394649773836
0	5438	0.009064868092536926
0	5480	0.007608235813677311
0	5488	0.0014480861136689782
0	5552	0.011582452803850174
0	5554	0.00036163313779979944
0	5584	0.005419923458248377
0	5618	0.006137996446341276
0	5678	0.010819518938660622
0	5834	0.02808651700615883
0	5904	0.01257454976439476
0	5948	0.007884644903242588
0	6096	0.026457548141479492
0	6202	0.01889415644109249
0	6314	0.01988307014107704
0	6260	-0.009539175778627396
0	6140	-0.02109581045806408
0	6002	-0.024154024198651314
0	5740	-0.04569130018353462
0	5522	-0.03795000538229942
0	5280	-0.04211967810988426
0	5074	-0.035893503576517105
0	4906	-0.02935352362692356
0	4814	-0.0161573588848114
0	4778	-0.006369802635163069
0	4758	-0.0035758984740823507
0	4884	0.02278810553252697
0	4968	0.01519115548580885
0	5004	0.006513322237879038
0	5088	0.015220516361296177
0	5182	0.017060304060578346
0	5212	0.00545157166197896
0	5396	0.0334821417927742
0	5450	0.009831290692090988
0	5488	0.006919911131262779
0	5494	0.0010930421994999051
0	5488	-0.0010934405727311969
0	5498	0.001823464292101562
0	5462	-0.006569263059645891
0	5504	0.007674223277717829
0	5420	-0.015379357151687145
0	5474	0.00991601962596178
0	5442	-0.00589325837790966
0	5410	-0.005917014088481665
0	5570	0.02973019890487194
0	5562	-0.001493391813710332
0	5558	-0.0007499531493522227
0	5582	0.004516145214438438
0	5484	-0.018489636480808258
0	5486	0.0003779479884542525
0	5382	-0.01965775340795517
0	5454	0.01360047422349453
0	5512	0.010929785668849945
0	5496	-0.003003679681569338
0	5530	0.0063556949608027935
0	5546	0.0029769656248390675
0	5612	0.012220260687172413
0	6174	0.1035919263958931
0	6710	0.09807270020246506
0	7100	0.07062402367591858
1	5330	-0.31667840480804443
0	4834	-0.0886632576584816
0	5182	0.062347713857889175
0	5268	0.015427484177052975
0	5366	0.017599310725927353
0	5410	0.007907506078481674
0	5458	0.008630713447928429
0	5494	0.006474199239164591
0	5468	-0.004675922449678183
0	5550	0.014746610075235367
0	5572	0.0039553167298436165
0	5612	0.0071849399246275425
0	5716	0.01866542361676693
0	5754	0.006808897014707327
0	5874	0.021457692608237267
0	5946	0.012851329520344734
0	6040	0.016739878803491592
0	6150	0.01953333057463169
0	6226	0.013450533151626587
0	6296	0.012334655970335007
0	6202	-0.016485249623656273
0	6016	-0.03246413171291351
0	5838	-0.03096657432615757
0	5468	-0.064247265458107
0	5328	-0.02431371621787548
0	5086	-0.0420771986246109
0	4938	-0.025801952928304672
0	4908	-0.005250691436231136
0	4818	-0.01586928404867649
0	4800	-0.0032095478381961584
0	4918	0.02133198268711567
0	4928	0.0018122945912182331
0	5024	0.017388153821229935
0	5082	0.010515374131500721
0	5204	0.02214343659579754
0	5254	0.009084082208573818
0	5298	0.00800155196338892
0	5428	0.023663898929953575
0	5412	-0.0029136468656361103
0	5516	0.01894514448940754
0	5540	0.004372859373688698
0	5514	-0.0047381846234202385
0	5486	-0.0051056998781859875
0	5500	0.0025564238894730806
0	5494	-0.0010973067255690694
0	5442	-0.009532073512673378
0	5420	-0.004045257810503244
0	5454	0.006275610066950321
0	5426	-0.0051903752610087395
0	5466	0.007451657671481371
0	5516	0.009362827986478806
0	5530	0.002632865682244301
0	5562	0.006036369130015373
0	5574	0.0022675737272948027
0	5538	-0.006798182148486376
0	5486	-0.009806633926928043
0	5464	-0.004138553515076637
0	5482	0.0033749579451978207
0	5472	-0.0018682742957025766
0	5490	0.003349252510815859
0	5480	-0.0018527667270973325
0	5530	0.009231791831552982
0	5658	0.02354614809155464
0	6092	0.07952699065208435
0	6558	0.08486717939376831
0	7274	0.1293337047100067
1	5966	-0.2334297001361847
0	4784	-0.2101084440946579
0	5126	0.06102565675973892
0	5254	0.02287893369793892
0	5320	0.011815394274890423
0	5364	0.007887283340096474
0	5424	0.010765034705400467
0	5426	0.00035896760527975857
0	5456	0.005386898759752512
0	5474	0.003232874907553196
0	5530	0.010055906139314175
0	5600	0.012561611831188202
0	5644	0.007888980209827423
0	5696	0.009311209432780743
0	5764	0.012159503996372223
0	5878	0.02035496197640896
0	6030	0.027083851397037506
0	6084	0.00959522370249033
0	6244	0.028344672173261642
0	6228	-0.002822699025273323
0	6174	-0.009485221467912197
0	6062	-0.01959160715341568
0	5838	-0.03905114904046059
0	5632	-0.03583689033985138
0	5350	-0.049017902463674545
0	5042	-0.053577642887830734
0	4980	-0.010815714485943317
0	4862	-0.020666223019361496
0	4830	-0.0056449337862432
0	4844	0.002495009917765856
0	4808	-0.006509710103273392
0	4938	0.023672517389059067
0	4978	0.007277049124240875
0	5046	0.01238209754228592
0	5108	0.011303829960525036
0	5190	0.01496951375156641
0	5278	0.01608187146484852
0	5316	0.006950626149773598
0	5358	0.007687426637858152
0	5452	0.017215486615896225
0	5422	-0.005495042074471712
0	5544	0.02236125059425831
0	5522	-0.004033736884593964
0	5560	0.006972562521696091
0	5518	-0.007712932303547859
0	5470	-0.008828072808682919
0	5522	0.00958772748708725
0	5472	-0.009247842244803905
0	5444	-0.005198406055569649
0	5484	0.0074632433243095875
0	5466	-0.0033740722574293613
0	5472	0.0011296881129965186
0	5462	-0.001889811479486525
0	5484	0.004167456179857254
0	5516	0.006067424081265926
0	5430	-0.016289113089442253
0	5512	0.015493526123464108
0	5546	0.006402691826224327
0	5596	0.009375468827784061
0	5636	0.007464636117219925
0	5554	-0.015227483585476875
0	5558	0.0007393897394649684
0	5484	-0.013626654632389545
0	5488	0.0007342952885665
0	5516	0.00512620247900486
0	5476	-0.00730495760217309
0	5472	-0.0007292261580005288
0	5588	0.021122656762599945
0	5768	0.03272251412272453
0	5974	0.037356287240982056
0	6816	0.15220901370048523
0	7094	0.04983567073941231
1	5292	-0.3200710415840149
0	4836	-0.08110511302947998
0	5116	0.05001607537269592
0	5240	0.022203123196959496
0	5300	0.010758215561509132
0	5336	0.006463504862040281
0	5402	0.011859411373734474
0	5442	0.0071893311105668545
0	5462	0.003595570335164666
0	5510	0.008629575371742249
0	5538	0.00503277312964201
0	5590	0.009342323988676071
0	5630	0.007181844208389521
0	5704	0.013277353718876839
0	5812	0.019346056506037712
0	5964	0.027179095894098282
0	6050	0.01533942949026823
0	6198	0.026327023282647133
0	6248	0.008864724077284336
0	6234	-0.0024719841312617064
0	6116	-0.02075272612273693
0	5996	-0.02102656289935112
0	5738	-0.04507337510585785
0	5460	-0.04850472882390022
0	5226	-0.04083152115345001
0	5080	-0.025512581691145897
0	4968	-0.019629377871751785
0	4822	-0.025708448141813278
0	4774	-0.008509633131325245
0	4810	0.006460180040448904
0	4868	0.010552233085036278
0	4956	0.016051558777689934
0	4986	0.00546813290566206
0	5090	0.01897117868065834
0	5174	0.015336863696575165
0	5214	0.007308873347938061
0	5286	0.01316575426608324
0	5296	0.00182987074367702
0	5384	0.016117217019200325
0	5412	0.005130648612976074
0	5442	0.005500415805727243
0	5520	0.014309477061033249
0	5500	-0.0036706675309687853
0	5568	0.012490203604102135
0	5534	-0.006250306498259306
0	5532	-0.00036829247255809605
0	5502	-0.005539075005799532
0	5506	0.0007410426624119282
0	5534	0.005209560506045818
0	5510	-0.004485199227929115
0	5536	0.004880979191511869
0	5508	-0.005275586619973183
0	5500	-0.0015119443414732814
0	5538	0.007192519959062338
0	5532	-0.0011351023567840457
0	5470	-0.011706801131367683
0	5486	0.003013712354004383
0	5490	0.0007509856368415058
0	5488	-0.00037392962258309126
0	5452	-0.00670091575011611
0	5494	0.00778671819716692
0	5492	-0.0003693671606015414
0	5442	-0.009203809313476086
0	5466	0.004405501764267683
0	5622	0.028570033609867096
0	5600	-0.004018118139356375
0	5646	0.008381822146475315
0	5600	-0.008363534696400166
0	5584	-0.002903705695644021
0	5566	-0.0032627214677631855
0	5484	-0.014849692583084106
0	5536	0.00941449124366045
0	5514	-0.003982669673860073
0	5526	0.0021721816156059504
0	5586	0.010863660834729671
0	5566	-0.0036200841423124075
0	5816	0.04524177312850952
0	6234	0.07550123333930969
0	7814	0.28414198756217957
0	7024	-0.14015540480613708
1	4748	-0.4002062976360321
0	4872	0.02190503105521202
0	5090	0.038655221462249756
0	5178	0.015641849488019943
0	5222	0.00783764198422432
0	5328	0.018916411325335503
0	5326	-0.0003572151472326368
0	5410	0.015017341822385788
0	5430	0.0035772628616541624
0	5484	0.00966195110231638
0	5572	0.01574239693582058
0	5580	0.001430461648851633
0	5690	0.019658537581562996
0	5738	0.00856561679393053
0	5844	0.018885180354118347
0	6012	0.02989182062447071
0	6102	0.015974441543221474
0	6278	0.031154852360486984
0	6294	0.0028209739830344915
0	6322	0.0049161906354129314
0	6222	-0.017480481415987015
0	5978	-0.04246974363923073
0	5770	-0.03611111268401146
0	5484	-0.049579329788684845
0	5152	-0.057567596435546875
0	5022	-0.02259821631014347
0	4796	-0.03941035643219948
0	4714	-0.01438461896032095
0	4750	0.006371831521391869
0	4704	-0.00829167477786541
0	4826	0.022301843389868736
0	4876	0.009135757572948933
0	5000	0.02265612594783306
0	5016	0.0029249743092805147
0	5118	0.018665136769413948
0	5158	0.007324308156967163
0	5182	0.004399149212986231
0	5256	0.013575989753007889
0	5252	-0.0007345289923250675
0	5286	0.006250306498259306
0	5344	0.010675239376723766
0	5360	0.0029490189626812935
0	5402	0.00775165157392621
0	5412	0.001848907209932804
0	5492	0.014821035787463188
0	5492	0.0
0	5486	-0.001117595937103033
0	5516	0.0056094336323440075
0	5478	-0.007139189168810844
0	5482	0.0007553535979241133
0	5480	-0.00037968435208313167
0	5508	0.005340657662600279
0	5496	-0.0022957134060561657
0	5512	0.003066309029236436
0	5488	-0.004598640836775303
0	5532	0.008412787690758705
0	5458	-0.014102938584983349
0	5528	0.013284748420119286
0	5506	-0.00415381696075201
0	5514	0.0015033261151984334
0	5526	0.002243605675175786
0	5470	-0.010424681939184666
0	5498	0.005193199496716261
0	5534	0.006656476762145758
0	5572	0.0070039196871221066
0	5692	0.02205612137913704
0	5666	-0.004763242322951555
0	5614	-0.009498410858213902
0	5596	-0.0032807602547109127
0	5504	-0.016733357682824135
0	5564	0.010898654349148273
0	5536	-0.005079272668808699
0	5518	-0.00326177547685802
0	5556	0.006881149020045996
0	5524	-0.005789619870483875
0	5602	0.014109474606812
0	5894	0.05278507620096207
0	6130	0.042557284235954285
0	7256	0.20230211317539215
0	7280	0.0042665149085223675
1	4982	-0.4042121469974518
0	4862	-0.021169496700167656
0	5108	0.04356295242905617
0	5228	0.021299000829458237
0	5214	-0.0024890657514333725
0	5344	0.02315034531056881
0	5418	0.013192611746490002
0	5414	-0.0007132837199606001
0	5460	0.008208324201405048
0	5488	0.004997739102691412
0	5522	0.006069622468203306
0	5616	0.016781119629740715
0	5628	0.0021404109429568052
0	5720	0.01639714278280735
0	5826	0.018871508538722992
0	5908	0.014576741494238377
0	6120	0.03763803467154503
0	6196	0.013456725515425205
0	6300	0.01835143007338047
0	6254	-0.008083505555987358
0	6198	-0.009797746315598488
0	6078	-0.020917827263474464
0	5812	-0.04622228443622589
0	5592	-0.03816396743059158
0	5278	-0.05445905402302742
0	5042	-0.04098930209875107
0	4860	-0.03171321004629135
0	4744	-0.020334942266345024
0	4710	-0.006008907221257687
0	4762	0.009330032393336296
0	4808	0.008379684761166573
0	4896	0.016047656536102295
0	4922	0.004740373697131872
0	5018	0.017522724345326424
0	5026	0.001462095184251666
0	5152	0.023054402321577072
0	5216	0.011723903007805347
0	5264	0.008803784847259521
0	5384	0.022029666230082512
0	5382	-0.00036733195884153247
0	5438	0.010291973128914833
0	5492	0.00992951262742281
0	5498	0.0011041183024644852
0	5526	0.005156664177775383
0	5522	-0.0007375447312369943
0	5542	0.003694626735523343
0	5518	-0.0044435663148760796
0	5476	-0.00780524080619216
0	5490	0.0026134031359106302
0	5466	-0.0045028142631053925
0	5488	0.004148021340370178
0	5484	-0.000757566187530756
0	5436	-0.009125012904405594
0	5508	0.013720208778977394
0	5456	-0.009914330206811428
0	5468	0.0022853370755910873
0	5456	-0.0022791733499616385
0	5506	0.009460858069360256
0	5668	0.03050655871629715
0	5610	-0.010856814682483673
0	5688	0.014523698017001152
0	5614	-0.013704041950404644
0	5566	-0.008849884383380413
0	5520	-0.008447703905403614
0	5436	-0.015378981828689575
0	5508	0.013149084523320198
0	5456	-0.00947602465748787
0	5518	0.011281889863312244
0	5558	0.007267442066222429
0	5550	-0.0014519584365189075
0	5912	0.06563440710306168
0	6224	0.05640728771686554
0	7382	0.20843832194805145
1	6508	-0.15556029975414276
0	4626	-0.3330305516719818
0	4916	0.05158979818224907
0	5216	0.05356760323047638
0	5254	0.0067974478006362915
0	5298	0.007881161756813526
0	5374	0.013628538697957993
0	5386	0.002153058536350727
0	5468	0.014721546322107315
0	5488	0.0035909651778638363
0	5484	-0.000717969611287117
0	5570	0.015438562259078026
0	5568	-0.00035879158531315625
0	5702	0.02402466908097267
0	5766	0.011457624845206738
0	5842	0.013584851287305355
0	5980	0.02464168332517147
0	6070	0.016035348176956177
0	6286	0.03839772194623947
0	6312	0.004603616893291473
0	6326	0.002468004124239087
0	6216	-0.019300051033496857
0	5976	-0.04191797971725464
0	5796	-0.03135305643081665
0	5380	-0.07231764495372772
0	5082	-0.05184592679142952
0	4944	-0.024075647816061974
0	4766	-0.03116391971707344
0	4692	-0.013043018989264965
0	4744	0.009248609654605389
0	4762	0.0032523067202419043
0	4870	0.019721224904060364
0	4896	0.004740661475807428
0	4988	0.016776688396930695
0	5068	0.014608670026063919
0	5072	0.0007312614470720291
0	5200	0.023432636633515358
0	5252	0.009529627859592438
0	5344	0.01687392219901085
0	5416	0.013215696439146996
0	5494	0.01432331558316946
0	5544	0.009181050583720207
0	5560	0.0029384037479758263
0	5534	-0.004775139968842268
0	5588	0.009927809238433838
0	5548	-0.007361962925642729
0	5486	-0.011431662365794182
0	5496	0.0018494315445423126
0	5454	-0.007795196957886219
0	5488	0.006343046668916941
0	5444	-0.008250928483903408
0	5456	0.0022627278231084347
0	5478	0.004168245475739241
0	5454	-0.00456152344122529
0	5514	0.011428571306169033
0	5520	0.0011418856447562575
0	5470	-0.009489346295595169
0	5490	0.003783149877563119
0	5452	-0.007155320607125759
0	5554	0.019115202128887177
0	5648	0.01752728410065174
0	5624	-0.004450543317943811
0	5628	0.0007383161573670805
0	5606	-0.004042532294988632
0	5532	-0.013546331785619259
0	5480	-0.009492168202996254
0	5474	-0.0010925380047410727
0	5494	0.003635746892541647
0	5466	-0.005082591902464628
0	5508	0.00761826429516077
0	5524	0.002900582505390048
0	5518	-0.0010875213192775846
0	5968	0.08157691359519958
0	6320	0.0636543408036232
0	7660	0.24117779731750488
1	6298	-0.24212759733200073
0	4632	-0.294860303401947
0	4880	0.044115033000707626
0	5094	0.0382065549492836
0	5160	0.011808629147708416
0	5288	0.022946469485759735
0	5262	-0.004665351007133722
0	5338	0.013653022237122059
0	5368	0.005393872503191233
0	5418	0.008994423784315586
0	5454	0.006479714997112751
0	5468	0.002520887413993478
0	5552	0.01512550562620163
0	5576	0.004319965373724699
0	5674	0.017626743763685226
0	5738	0.011503067798912525
0	5858	0.02155662700533867
0	5986	0.022961564362049103
0	6100	0.020406458526849747
0	6294	0.034624721854925156
0	6330	0.006396209355443716
0	6270	-0.010606953874230385
0	6206	-0.011261261068284512
0	5914	-0.051165834069252014
0	5696	-0.03809945285320282
0	5406	-0.05062731355428696
0	5068	-0.059047549962997437
0	4912	-0.027324317023158073
0	4750	-0.028551286086440086
0	4748	-0.00035576638765633106
0	4746	-0.00036201716284267604
0	4762	0.0029235135298222303
0	4862	0.0182575024664402
0	4886	0.004382281098514795
0	5000	0.02084222063422203
0	5030	0.005490147974342108
0	5110	0.014663472771644592
0	5194	0.015410959720611572
0	5218	0.004407011903822422
0	5318	0.01837942562997341
0	5344	0.004781580064445734
0	5396	0.009569612331688404
0	5488	0.016938334330916405
0	5512	0.004420432262122631
0	5508	-0.0007370282546617091
0	5554	0.008484476245939732
0	5490	-0.01181785762310028
0	5542	0.009623807854950428
0	5510	-0.005938609596341848
0	5516	0.0011175682302564383
0	5504	-0.0022459852043539286
0	5474	-0.005644048564136028
0	5488	0.0026471035089343786
0	5454	-0.0064579034224152565
0	5506	0.009905642829835415
0	5492	-0.0026701251044869423
0	5534	0.008005998097360134
0	5488	-0.008742587640881538
0	5482	-0.0011361915385350585
0	5530	0.009047726169228554
0	5490	-0.007502907421439886
0	5496	0.0011202249443158507
0	5584	0.016355255618691444
0	5650	0.012211819179356098
0	5680	0.005524793639779091
0	5618	-0.011370443738996983
0	5616	-0.00036547481431625783
0	5576	-0.007287036161869764
0	5564	-0.002181051531806588
0	5492	-0.013058934360742569
0	5450	-0.007609706837683916
0	5518	0.01231259573251009
0	5486	-0.005789898801594973
0	5528	0.007599334232509136
0	5578	0.009045952931046486
0	5638	0.010850563645362854
0	6074	0.0788075253367424
0	6820	0.13436761498451233
0	7686	0.15479396283626556
1	6242	-0.2548055350780487
0	4772	-0.25829046964645386
0	5012	0.04235144704580307
0	5168	0.027603453025221825
0	5228	0.010636789724230766
0	5290	0.011006047949194908
0	5376	0.01528598926961422
0	5346	-0.005335989408195019
0	5434	0.015669701620936394
0	5482	0.008549850434064865
0	5458	-0.0042749252170324326
0	5576	0.021027371287345886
0	5594	0.0032059273216873407
0	5690	0.017088336870074272
0	5774	0.014942897483706474
0	5852	0.013865352608263493
0	6012	0.028412790969014168
0	6120	0.01913400925695896
0	6284	0.02896912209689617
0	6336	0.009147199802100658
0	6292	-0.0077050598338246346
0	6196	-0.016732901334762573
0	5960	-0.04095752537250519
0	5752	-0.03600609302520752
0	5432	-0.055309098213911057
0	5156	-0.047730494290590286
0	4948	-0.03605852648615837
0	4802	-0.025411633774638176
0	4736	-0.011572856456041336
0	4702	-0.006035288795828819
0	4776	0.013371720910072327
0	4796	0.00364617514424026
0	4856	0.010936930775642395
0	4914	0.010582396760582924
0	4982	0.012426143512129784
0	5106	0.022693444043397903
0	5132	0.0047636497765779495
0	5242	0.020183980464935303
0	5306	0.011750881560146809
0	5326	0.003675029380246997
0	5452	0.02317482978105545
0	5422	-0.005518019199371338
0	5544	0.02246115356683731
0	5560	0.00294662918895483
0	5646	0.01585078053176403
0	5748	0.018814560025930405
0	5632	-0.021410640329122543
0	5642	0.0018500701989978552
0	5550	-0.017070967704057693
0	5622	0.01342081744223833
0	5790	0.03145478293299675
0	5750	-0.007512771990150213
0	5786	0.006780427414923906
0	5770	-0.003016818780452013
0	5684	-0.016213566064834595
0	5710	0.00489402562379837
0	5630	-0.01500637736171484
0	5666	0.006724196020513773
0	5678	0.002229405799880624
0	5608	-0.012929442338645458
0	5656	0.008816721849143505
0	5592	-0.011692630127072334
0	5576	-0.002909055445343256
0	5594	0.0032584688160568476
0	5662	0.012259467504918575
0	5722	0.01077315304428339
0	5658	-0.011449153535068035
0	5648	-0.0017833365127444267
0	5578	-0.012453299947082996
0	5530	-0.00852565374225378
0	5452	-0.013837474398314953
0	5426	-0.004612491466104984
0	5476	0.008869966492056847
0	5516	0.007098827511072159
0	5456	-0.010651013813912868
0	5496	0.007108668331056833
0	5582	0.015306485816836357
0	5882	0.05341055989265442
0	7016	0.20160478353500366
0	7148	0.023265104740858078
1	4998	-0.3755720853805542
0	4728	-0.0473833829164505
0	5004	0.04872766509652138
0	5102	0.01738184504210949
0	5196	0.016738489270210266
0	5230	0.006071934476494789
0	5338	0.019342591986060143
0	5386	0.008611719124019146
0	5460	0.013298668898642063
0	5536	0.013675951398909092
0	5564	0.005040685646235943
0	5616	0.009366444312036037
0	5614	-0.0003601959615480155
0	5708	0.016925349831581116
0	5738	0.00539801362901926
0	5826	0.015826959162950516
0	5924	0.017614493146538734
0	6032	0.019381003454327583
0	6140	0.01933658868074417
0	6162	0.003925767261534929
0	6134	-0.004977718461304903
0	5982	-0.02691313438117504
0	5754	-0.0402376614511013
0	5544	-0.037000492215156555
0	5162	-0.06729459762573242
0	4926	-0.0416465699672699
0	4792	-0.023726332932710648
0	4604	-0.0334436260163784
0	4572	-0.005736000835895538
0	4524	-0.008731505833566189
0	4590	0.012199930846691132
0	4678	0.016307570040225983
0	4756	0.01445890311151743
0	4944	0.0349031500518322
0	5020	0.014123593457043171
0	5174	0.02865009568631649
0	5208	0.006327543407678604
0	5244	0.006705159321427345
0	5330	0.016032014042139053
0	5366	0.006716501899063587
0	5528	0.0302562452852726
0	5588	0.011208527721464634
0	5618	0.005605241749435663
0	5646	0.005231428425759077
0	5590	-0.01046689786016941
0	5548	-0.007857419550418854
0	5432	-0.021739130839705467
0	5504	0.013534852303564548
0	5552	0.009053187444806099
0	5570	0.0034075421281158924
0	5640	0.013301242142915726
0	5602	-0.0072433375753462315
0	5578	-0.004585812333971262
0	5494	-0.01606835424900055
0	5468	-0.004975124262273312
0	5530	0.011840647086501122
0	5508	-0.004185426980257034
0	5572	0.012120752595365047
0	5548	-0.004517675377428532
0	5624	0.014218896627426147
0	5708	0.015608548186719418
0	5690	-0.0033216869924217463
0	5708	0.003301137126982212
0	5682	-0.0047407192178070545
0	5724	0.007623888086527586
0	5644	-0.014460096135735512
0	5592	-0.009372522123157978
0	5564	-0.005035126116126776
0	5536	-0.005025486461818218
0	5604	0.012189729139208794
0	5560	-0.00787627138197422
0	5500	-0.010738318786025047
0	5596	0.01719033531844616
0	5966	0.0662631243467331
0	6582	0.11010879278182983
0	8110	0.2715221643447876
0	7264	-0.14808505773544312
1	4616	-0.45860755443573
0	4860	0.04247615113854408
0	5044	0.032160334289073944
0	5154	0.01928539015352726
0	5174	0.003516421653330326
0	5282	0.0190364271402359
0	5334	0.009181655012071133
0	5376	0.007422942668199539
0	5414	0.0067196376621723175
0	5420	0.0010617213556542993
0	5462	0.0074359094724059105
0	5438	-0.004251851234585047
0	5516	0.013827499933540821
0	5592	0.013481550849974155
0	5690	0.01739603839814663
0	5816	0.02236633375287056
0	5950	0.02377122826874256
0	6130	0.031880978494882584
0	6286	0.02756411023437977
0	6306	0.0035205483436584473
0	6230	-0.013322270475327969
0	6030	-0.034922704100608826
0	5700	-0.05745725706219673
0	5528	-0.02993074059486389
0	5310	-0.037942517548799515
0	5070	-0.04181767255067825
0	4770	-0.05243227630853653
0	4714	-0.009856032207608223
0	4812	0.01743917167186737
0	4792	-0.0036300274077802896
0	4860	0.012529480271041393
0	4934	0.013614620082080364
0	4950	0.002942366525530815
0	5050	0.018400393426418304
0	5036	-0.0025776990223675966
0	5140	0.019164854660630226
0	5066	-0.013648435473442078
0	5098	0.005911767017096281
0	5204	0.01961631141602993
0	5236	0.005929586477577686
0	5374	0.025600435212254524
0	5436	0.011507906951010227
0	5392	-0.008167003281414509
0	5458	0.012259909883141518
0	5444	-0.0026027467101812363
0	5478	0.0063306065276265144
0	5440	-0.007090257480740547
0	5380	-0.011230766773223877
0	5558	0.03347458690404892
0	5422	-0.025693342089653015
0	5448	0.004939459729939699
0	5672	0.04276713728904724
0	5214	-0.08764319866895676
0	5410	0.037623330950737
0	5064	-0.06646688282489777
0	4668	-0.07619194686412811
0	5478	0.15625
0	5724	0.04723865166306496
0	5650	-0.014118724502623081
0	5358	-0.05541637912392616
0	5278	-0.015128402039408684
0	5312	0.00641267467290163
0	5310	-0.0003763218119274825
0	5182	-0.02403033711016178
0	5152	-0.005627462174743414
0	5372	0.04123814404010773
0	5236	-0.025455771014094353
0	5154	-0.015332070179283619
0	5488	0.06242835149168968
0	6372	0.16493767499923706
0	7492	0.2075047492980957
0	8074	0.10643615573644638
1	4806	-0.5881929397583008
0	4546	-0.046961359679698944
0	4882	0.06102359667420387
0	5008	0.022961972281336784
0	5160	0.027779471129179
0	5232	0.013181179761886597
0	5340	0.019789643585681915
0	5408	0.012476759031414986
0	5430	0.004036944359540939
0	5528	0.017984731122851372
0	5540	0.002204153686761856
0	5636	0.01759810373187065
0	5690	0.009885282255709171
0	5796	0.019330602139234543
0	5914	0.021372424438595772
0	5984	0.012645270675420761
0	6174	0.034269221127033234
0	6366	0.0345211997628212
0	6516	0.026807734742760658
0	6568	0.009225310757756233
0	6496	-0.012679331004619598
0	6406	-0.01573958434164524
0	6378	-0.0048620677553117275
0	5822	-0.09586647897958755
0	5316	-0.08702033013105392
0	5234	-0.01409564446657896
0	4968	-0.0457039438188076
0	4796	-0.029641203582286835
0	4990	0.03373795747756958
0	4484	-0.0892920196056366
0	4412	-0.012979676946997643
0	4596	0.03324900567531586
0	4584	-0.0021677606273442507
0	4786	0.03655623272061348
0	4932	0.02645726315677166
0	5010	0.014154195785522461
0	5130	0.021804966032505035
0	5152	0.004002668429166079
0	5248	0.01749335043132305
0	5452	0.037214506417512894
0	5274	-0.03248649463057518
0	5396	0.022302113473415375
0	5364	-0.005858302116394043
0	5360	-0.0007337474962696433
0	5534	0.032003335654735565
0	5604	0.012904969975352287
0	5714	0.020326705649495125
0	5696	-0.003335639601573348
0	5746	0.009304172359406948
0	5722	-0.004487435333430767
0	5712	-0.0018796756630763412
0	5720	0.0015111637767404318
0	5676	-0.008347456343472004
0	5600	-0.014482627622783184
0	5644	0.008396519348025322
0	5666	0.00418951828032732
0	5786	0.022789426147937775
0	5768	-0.003400803543627262
0	5692	-0.014271586202085018
0	5674	-0.0033653248101472855
0	5568	-0.019672131165862083
0	5532	-0.006633662153035402
0	5478	-0.009893612936139107
0	5446	-0.005831045564264059
0	5474	0.005081792827695608
0	5432	-0.007597776595503092
0	5520	0.015878744423389435
0	5508	-0.0021602159831672907
0	5608	0.017963426187634468
0	6002	0.07062366604804993
0	7060	0.18902307748794556
0	7870	0.14319218695163727
1	5510	-0.4112071096897125
0	4542	-0.1685217171907425
0	4980	0.07661629468202591
0	5152	0.030184263363480568
0	5232	0.014076411724090576
0	5364	0.023291924968361855
0	5412	0.008486363105475903
0	5432	0.0035429582931101322
0	5526	0.016680467873811722
0	5518	-0.0014211778761819005
0	5602	0.014940239489078522
0	5642	0.007117522414773703
0	5698	0.009962049312889576
0	5850	0.027031192556023598
0	5924	0.013145584613084793
0	6082	0.0280446819961071
0	6238	0.02763833850622177
0	6404	0.02931550145149231
0	6518	0.020046187564730644
0	6516	-0.00034974003210663795
0	6460	-0.009736872278153896
0	6284	-0.030428417026996613
0	6016	-0.046111494302749634
0	5738	-0.04768384248018265
0	5340	-0.06814757734537125
0	5074	-0.04559270665049553
0	4796	-0.047767966985702515
0	4642	-0.026585031300783157
0	4566	-0.013223370537161827
0	4552	-0.002471635118126869
0	4632	0.014404898509383202
0	4668	0.006516545079648495
0	4760	0.016640741378068924
0	4872	0.02028520032763481
0	4910	0.006894133053719997
0	5050	0.0254489928483963
0	5100	0.009106251411139965
0	5164	0.0116781210526824
0	5248	0.015352561138570309
0	5322	0.013547820039093494
0	5406	0.015397023409605026
0	5460	0.00990995392203331
0	5470	0.0018372221384197474
0	5536	0.012142620980739594
0	5494	-0.0077420310117304325
0	5524	0.005544671323150396
0	5500	-0.004451038781553507
0	5490	-0.0018630995182320476
0	5490	0.0
0	5426	-0.01206939946860075
0	5464	0.0072156465612351894
0	5474	0.001910901046358049
0	5412	-0.011909030377864838
0	5460	0.009255688637495041
0	5412	-0.00927225686609745
0	5482	0.013515775091946125
0	5594	0.021568601951003075
0	5600	0.0011495720827952027
0	5600	0.0
0	5532	-0.012864818796515465
0	5562	0.005640794523060322
0	5482	-0.014954948797821999
0	5434	-0.008927686139941216
0	5416	-0.003333950648084283
0	5426	0.0018459948478266597
0	5448	0.004048334434628487
0	5470	0.004038475453853607
0	5484	0.0025641340762376785
0	5584	0.018279530107975006
0	5792	0.03794374316930771
0	5978	0.033833764493465424
0	7184	0.2186155617237091
0	7324	0.025116613134741783
1	4720	-0.46204620599746704
0	4950	0.04100845009088516
0	5214	0.04722324758768082
0	5316	0.01827913336455822
0	5360	0.007893792353570461
0	5460	0.017954396083950996
0	5454	-0.001077457214705646
0	5496	0.007540936581790447
0	5584	0.015797032043337822
0	5562	-0.003946660086512566
0	5656	0.016847889870405197
0	5662	0.0010741394944489002
0	5734	0.012870472855865955
0	5844	0.019633742049336433
0	5884	0.0071289390325546265
0	6020	0.024197567254304886
0	6130	0.019522931426763535
0	6360	0.04067676514387131
0	6506	0.025700002908706665
0	6460	-0.008048899471759796
0	6430	-0.005218056961894035
0	6174	-0.04426717013120651
0	5990	-0.03168044239282608
0	5660	-0.05664198473095894
0	5268	-0.06721075624227524
0	4950	-0.05459040030837059
0	4766	-0.03170190751552582
0	4596	-0.029463419690728188
0	4614	0.003144764108583331
0	4616	0.00035472732270136476
0	4660	0.007930976338684559
0	4838	0.032095976173877716
0	4890	0.009382668882608414
0	5056	0.030010845512151718
0	5094	0.0068807341158390045
0	5200	0.019224492833018303
0	5310	0.019981350749731064
0	5320	0.001818071585148573
0	5356	0.006552046164870262
0	5416	0.010935203172266483
0	5428	0.0021889822091907263
0	5430	0.00036533683305606246
0	5478	0.008780487813055515
0	5430	-0.008794215507805347
0	5448	0.0033061897847801447
0	5462	0.002578363986685872
0	5432	-0.00554405665025115
0	5456	0.004454398062080145
0	5440	-0.002986300503835082
0	5460	0.0037577974144369364
0	5510	0.009453702718019485
0	5414	-0.01825696788728237
0	5486	0.013759014196693897
0	5552	0.012653050944209099
0	5588	0.0069064307026565075
0	5676	0.01684790849685669
0	5616	-0.01143423467874527
0	5582	-0.006444601807743311
0	5546	-0.0067814490757882595
0	5452	-0.017604095861315727
0	5478	0.004843938164412975
0	5476	-0.00037072738632559776
0	5526	0.009231791831552982
0	5516	-0.0018391594057902694
0	5448	-0.012471114285290241
0	5632	0.033672500401735306
0	5938	0.05585164949297905
0	6256	0.05782098323106766
0	7628	0.24805940687656403
0	7406	-0.039595719426870346
1	4840	-0.4523179829120636
0	4856	0.0028301554266363382
0	5078	0.03940175473690033
0	5170	0.016367388889193535
0	5226	0.009978143498301506
0	5284	0.010348149575293064
0	5386	0.01821775734424591
0	5374	-0.0021438526455312967
0	5450	0.01358436606824398
0	5522	0.012868632562458515
0	5514	-0.0014293200802057981
0	5604	0.01607946865260601
0	5652	0.008566023781895638
0	5740	0.015688883140683174
0	5772	0.0056986818090081215
0	5928	0.027750764042139053
0	6140	0.037656307220458984
0	6236	0.016999173909425735
0	6404	0.029634159058332443
0	6390	-0.0024571174290031195
0	6316	-0.012916739098727703
0	6232	-0.014591102488338947
0	5934	-0.051538072526454926
0	5664	-0.046585991978645325
0	5340	-0.0558556504547596
0	4996	-0.059340354055166245
0	4850	-0.02527759224176407
0	4686	-0.028573419898748398
0	4644	-0.007384918630123138
0	4696	0.009305988438427448
0	4706	0.0018190196715295315
0	4830	0.022574184462428093
0	4870	0.0072831446304917336
0	4954	0.015313935466110706
0	5028	0.013508579693734646
0	5090	0.011331652291119099
0	5188	0.01793251559138298
0	5232	0.008061068132519722
0	5344	0.020536892116069794
0	5418	0.013577815145254135
0	5408	-0.0018360076937824488
0	5464	0.010288317687809467
0	5462	-0.00036775521584786475
0	5520	0.010677335783839226
0	5562	0.007742315996438265
0	5504	-0.010705583728849888
0	5550	0.008512843400239944
0	5492	-0.010772793553769588
0	5472	-0.0037319466937333345
0	5502	0.005630559753626585
0	5450	-0.009814159944653511
0	5518	0.012904205359518528
0	5480	-0.007243890780955553
0	5502	0.004205964971333742
0	5506	0.0007655111839994788
0	5454	-0.009941118769347668
0	5566	0.021349327638745308
0	5588	0.004174625966697931
0	5696	0.02037735842168331
0	5606	-0.016869517043232918
0	5622	0.0029820704367011786
0	5616	-0.0011119485134258866
0	5558	-0.010696896351873875
0	5540	-0.0033057446125894785
0	5460	-0.01463968027383089
0	5516	0.010220843367278576
0	5510	-0.0010922595392912626
0	5502	-0.0014535060618072748
0	5556	0.009795148856937885
0	5600	0.007971014827489853
0	5746	0.026420237496495247
0	6060	0.05670599266886711
0	7102	0.18750448524951935
0	8084	0.174986332654953
1	6066	-0.3542007803916931
0	4614	-0.2541067898273468
0	5070	0.080218605697155
0	5130	0.010584873147308826
0	5260	0.022982817143201828
0	5310	0.008850601501762867
0	5362	0.009215066209435463
0	5400	0.0067375884391367435
0	5456	0.009936006739735603
0	5538	0.014551219530403614
0	5496	-0.007451476529240608
0	5562	0.011710155755281448
0	5638	0.013475813902914524
0	5706	0.01205217931419611
0	5802	0.01700298674404621
0	5890	0.015576323494315147
0	6054	0.028980042785406113
0	6240	0.03278418630361557
0	6346	0.01861521601676941
0	6434	0.015383181162178516
0	6366	-0.011825401335954666
0	6230	-0.023527242243289948
0	6050	-0.031011313199996948
0	5666	-0.06595293432474136
0	5318	-0.05971378833055496
0	5084	-0.04020710662007332
0	4824	-0.044806987047195435
0	4694	-0.022522782906889915
0	4590	-0.01816149801015854
0	4598	0.0014177694683894515
0	4622	0.004342738538980484
0	4670	0.008761788718402386
0	4794	0.022626910358667374
0	4822	0.005117894150316715
0	4958	0.02490507997572422
0	5002	0.008072406984865665
0	5090	0.0161752812564373
0	5166	0.01399288047105074
0	5242	0.014013005420565605
0	5352	0.020308692008256912
0	5386	0.006284425500780344
0	5414	0.005178919527679682
0	5436	0.004072867333889008
0	5436	0.0
0	5478	0.007798187900334597
0	5450	-0.005209237337112427
0	5500	0.0093276621773839
0	5450	-0.009359907358884811
0	5468	0.003386259311810136
0	5478	0.0018916702829301357
0	5450	-0.005328799597918987
0	5496	0.008805626071989536
0	5432	-0.012308954261243343
0	5474	0.008109882473945618
0	5458	-0.0030933015514165163
0	5478	0.0038631418719887733
0	5504	0.00500937644392252
0	5494	-0.0019183058757334948
0	5542	0.009161004796624184
0	5540	-0.0003794106305576861
0	5644	0.019612526521086693
0	5704	0.011242692358791828
0	5634	-0.013032307848334312
0	5594	-0.00740841357037425
0	5556	-0.007004608400166035
0	5454	-0.018733013421297073
0	5462	0.0014652014942839742
0	5426	-0.006578466389328241
0	5440	0.0025542471557855606
0	5510	0.01275587733834982
0	5494	-0.0029128335881978273
0	5570	0.013826897367835045
0	5628	0.010542131960391998
0	6012	0.06971509009599686
0	6844	0.15052466094493866
0	7734	0.1597023606300354
1	4952	-0.49247655272483826
0	4840	-0.019890837371349335
0	5180	0.06060174107551575
0	5228	0.008570204488933086
0	5320	0.016450701281428337
0	5374	0.009663334116339684
0	5408	0.0060887522995471954
0	5504	0.01719423569738865
0	5486	-0.003223341889679432
0	5550	0.011458855122327805
0	5604	0.009664256125688553
0	5614	0.0017886102432385087
0	5714	0.017873315140604973
0	5790	0.013569813221693039
0	5888	0.01747192069888115
0	6044	0.027772173285484314
0	6172	0.022741539403796196
0	6346	0.0308160949498415
0	6434	0.015516268089413643
0	6354	-0.014033282175660133
0	6244	-0.019194750115275383
0	6004	-0.04168982803821564
0	5722	-0.04882214963436127
0	5428	-0.050816986709833145
0	5090	-0.058449868112802505
0	4856	-0.04055974632501602
0	4618	-0.04142396152019501
0	4554	-0.011204874143004417
0	4528	-0.004591043572872877
0	4558	0.0053705694153904915
0	4698	0.02554682455956936
0	4780	0.014986293390393257
0	4804	0.004387835972011089
0	4964	0.02931942231953144
0	4966	0.0003670847218018025
0	5080	0.020969245582818985
0	5248	0.030957849696278572
0	5354	0.019552145153284073
0	5358	0.0007384978816844523
0	5466	0.019955161958932877
0	5454	-0.002218388020992279
0	5464	0.001850366941653192
0	5534	0.012964563444256783
0	5504	-0.005562422797083855
0	5530	0.00482930289581418
0	5510	-0.0037231005262583494
0	5474	-0.006723860744386911
0	5492	0.0033766040578484535
0	5460	-0.0060350787825882435
0	5526	0.012524035759270191
0	5548	0.004196657799184322
0	5492	-0.010729887522757053
0	5542	0.009611687622964382
0	5524	-0.003464203327894211
0	5582	0.011155561544001102
0	5550	-0.006135439500212669
0	5560	0.0019088583067059517
0	5712	0.0288417749106884
0	5756	0.008288229815661907
0	5726	-0.005607826169580221
0	5664	-0.011505771428346634
0	5588	-0.014020071364939213
0	5556	-0.005874002352356911
0	5542	-0.0025581056252121925
0	5492	-0.009104040451347828
0	5536	0.007986060343682766
0	5558	0.003982044756412506
0	5502	-0.010117190890014172
0	5612	0.019855355843901634
0	5944	0.059835635125637054
0	6244	0.05391352251172066
0	7200	0.17099520564079285
0	7294	0.016641095280647278
1	4990	-0.4036911427974701
0	4852	-0.02425222285091877
0	5162	0.05469687283039093
0	5266	0.018387552350759506
0	5402	0.024074772372841835
0	5384	-0.0031880598980933428
0	5432	0.00850530993193388
0	5518	0.015247145667672157
0	5528	0.001773238298483193
0	5586	0.01028259377926588
0	5574	-0.0021268802229315042
0	5632	0.010276884771883488
0	5730	0.017359266057610512
0	5794	0.011324627324938774
0	5952	0.027919139713048935
0	6106	0.027173912152647972
0	6240	0.023596256971359253
0	6342	0.01790730282664299
0	6402	0.01049207802861929
0	6300	-0.017752302810549736
0	6174	-0.021835070103406906
0	5930	-0.04212998226284981
0	5586	-0.059247009456157684
0	5306	-0.048210471868515015
0	5012	-0.05069431662559509
0	4832	-0.03112499602138996
0	4690	-0.02466505393385887
0	4584	-0.01854659989476204
0	4662	0.013780918903648853
0	4652	-0.0017935932846739888
0	4762	0.020046167075634003
0	4860	0.017884081229567528
0	4862	0.0003649634891189635
0	5034	0.0314442403614521
0	5134	0.018307417631149292
0	5190	0.010268948040902615
0	5338	0.027171583846211433
0	5354	0.002939159283414483
0	5486	0.024272440001368523
0	5544	0.010667908936738968
0	5558	0.0025756757240742445
0	5582	0.004415877629071474
0	5544	-0.0069939508102834225
0	5554	0.001842615893110633
0	5454	-0.018453361466526985
0	5470	0.0029616099782288074
0	5500	0.0055748955346643925
0	5470	-0.005600567441433668
0	5536	0.012388472445309162
0	5460	-0.014343230985105038
0	5456	-0.0007589173037558794
0	5456	0.0
0	5346	-0.021028753370046616
0	5418	0.01378535758703947
0	5516	0.01875000074505806
0	5578	0.011824238114058971
0	5592	0.0026573867071419954
0	5550	-0.007926921360194683
0	5502	-0.009004614315927029
0	5478	-0.00447878148406744
0	5412	-0.012253688648343086
0	5402	-0.0018491809023544192
0	5404	0.0003686046984512359
0	5396	-0.0014695257414132357
0	5480	0.015395894646644592
0	5560	0.014631827361881733
0	5892	0.06058541685342789
0	6408	0.09384661912918091
0	8066	0.2996313273906708
1	6246	-0.3238741457462311
0	4634	-0.2856703996658325
0	5082	0.07982798665761948
0	5188	0.018944133073091507
0	5218	0.005372941959649324
0	5266	0.00861398596316576
0	5286	0.0035932015161961317
0	5340	0.009712346829473972
0	5422	0.014762538485229015
0	5482	0.010804970748722553
0	5578	0.01729355752468109
0	5560	-0.0032402463257312775
0	5658	0.017630338668823242
0	5812	0.027671298012137413
0	5836	0.004300407133996487
0	6016	0.032172732055187225
0	6174	0.02815663069486618
0	6324	0.026636675000190735
0	6500	0.031118864193558693
0	6450	-0.008791363798081875
0	6264	-0.03252317011356354
0	6072	-0.03341919928789139
0	5654	-0.07247884571552277
0	5272	-0.066140316426754
0	4996	-0.047823674976825714
0	4758	-0.04133475199341774
0	4598	-0.027904706075787544
0	4604	0.00105231162160635
0	4650	0.008128931745886803
0	4686	0.006428341846913099
0	4826	0.025512374937534332
0	4850	0.004411602392792702
0	4980	0.02386459708213806
0	5008	0.005143276881426573
0	5092	0.015446855686604977
0	5180	0.01619492843747139
0	5218	0.006996956188231707
0	5306	0.016210243105888367
0	5388	0.01510815229266882
0	5488	0.01842842437326908
0	5492	0.0007371098035946488
0	5550	0.010693741030991077
0	5556	0.0011063170386478305
0	5524	-0.005904058925807476
0	5566	0.007762827444821596
0	5564	-0.0003702743852045387
0	5510	-0.010025372728705406
0	5546	0.006711158901453018
0	5554	0.0014986138558015227
0	5542	-0.002261277986690402
0	5572	0.005685622803866863
0	5572	0.0
0	5538	-0.006492597050964832
0	5580	0.00802619382739067
0	5510	-0.013350795023143291
0	5520	0.0019010442774742842
0	5660	0.026486726477742195
0	5650	-0.0018793223425745964
0	5612	-0.007094935514032841
0	5604	-0.0014847810380160809
0	5520	-0.015502158552408218
0	5450	-0.01286354847252369
0	5440	-0.0018309205770492554
0	5432	-0.0014606358017772436
0	5474	0.007648601196706295
0	5480	0.0010901294881477952
0	5556	0.01378326490521431
0	5696	0.025338448584079742
0	6328	0.11411649733781815
0	7752	0.2556767165660858
0	7496	-0.04534986615180969
1	4886	-0.45694878697395325
0	4804	-0.014412092044949532
0	5042	0.04201532155275345
0	5214	0.030450383201241493
0	5244	0.005322168581187725
0	5292	0.00853161420673132
0	5416	0.022068507969379425
0	5452	0.0064119310118258
0	5474	0.003920776769518852
0	5558	0.014976287260651588
0	5598	0.0071321590803563595
0	5664	0.011766243726015091
0	5712	0.008550865575671196
0	5824	0.019936393946409225
0	5946	0.021676043048501015
0	6066	0.02126704342663288
0	6240	0.030763426795601845
0	6372	0.023256907239556313
0	6368	-0.0007016230374574661
0	6294	-0.01292230375111103
0	6018	-0.04798052832484245
0	5690	-0.05683327838778496
0	5362	-0.05675132945179939
0	5068	-0.05088911950588226
0	4778	-0.050314608961343765
0	4642	-0.023692002519965172
0	4624	-0.003152437973767519
0	4594	-0.005287150852382183
0	4658	0.011395334266126156
0	4798	0.025393599644303322
0	4828	0.005531721282750368
0	4956	0.023610427975654602
0	5050	0.01732271909713745
0	5070	0.0036855037324130535
0	5190	0.022132597863674164
0	5160	-0.005534986965358257
0	5252	0.01698775216937065
0	5306	0.009981146082282066
0	5346	0.007400098256766796
0	5398	0.009627727791666985
0	5398	0.0
0	5454	0.010391409508883953
0	5474	0.003716044593602419
0	5466	-0.0014886121498420835
0	5516	0.009324531070888042
0	5484	-0.005983694456517696
0	5490	0.0011260274332016706
0	5500	0.0018855590606108308
0	5472	-0.005308660678565502
0	5514	0.008008339442312717
0	5512	-0.0003832494548987597
0	5570	0.011150272563099861
0	5582	0.0023087284062057734
0	5582	0.0
0	5618	0.006893734447658062
0	5648	0.005714140832424164
0	5620	-0.005299350246787071
0	5650	0.005642421077936888
0	5738	0.016442246735095978
0	5740	0.0003711906319949776
0	5708	-0.005904640071094036
0	5696	-0.002202319912612438
0	5592	-0.01900075562298298
0	5550	-0.0076481373980641365
0	5532	-0.0032682507298886776
0	5514	-0.0032615000382065773
0	5508	-0.0010848470265045762
0	5558	0.009026465937495232
0	5548	-0.0018025597091764212
0	5644	0.017283596098423004
0	6078	0.07802106440067291
0	6846	0.13750462234020233
0	8172	0.2354542762041092
1	6028	-0.37472036480903625
0	4790	-0.21566690504550934
0	5030	0.04198642447590828
0	5164	0.023504648357629776
0	5212	0.008435654453933239
0	5290	0.013731105253100395
0	5390	0.017622800543904305
0	5424	0.005996120162308216
0	5474	0.008822388015687466
0	5524	0.008827371522784233
0	5554	0.005298231728374958
0	5654	0.017663683742284775
0	5766	0.019779132679104805
0	5996	0.04058966785669327
0	6430	0.07642190158367157
0	6062	-0.06450481712818146
0	6024	-0.006648238282650709
0	6174	0.02619965374469757
0	6288	0.01985786110162735
0	6248	-0.006943801883608103
0	6200	-0.008301051333546638
0	5936	-0.045485347509384155
0	5638	-0.05122445896267891
0	5284	-0.06080733239650726
0	4980	-0.05228578299283981
0	4720	-0.04486678168177605
0	4558	-0.028089238330721855
0	4544	-0.002442797878757119
0	4586	0.007394365966320038
0	4636	0.00892113707959652
0	4762	0.022964205592870712
0	4890	0.02350953221321106
0	4954	0.011747574433684349
0	5076	0.022404231131076813
0	5108	0.005879686679691076
0	5192	0.0154440151527524
0	5252	0.011038068681955338
0	5338	0.015834633260965347
0	5390	0.009579485282301903
0	5464	0.013639379292726517
0	5442	-0.0040564457885921
0	5490	0.008856523782014847
0	5538	0.008865466341376305
0	5572	0.006288532633334398
0	5546	-0.00482148164883256
0	5548	0.0003729209420271218
0	5780	0.04339747503399849
0	5588	-0.03596987575292587
0	5322	-0.05001629516482353
0	5340	0.0034051781985908747
0	5406	0.012557555921375751
0	5430	0.004589494783431292
0	5426	-0.0007673910004086792
0	5494	0.013063357211649418
0	5438	-0.010743611492216587
0	5490	0.009947076439857483
0	5516	0.004949238616973162
0	5474	-0.0079466188326478
0	5486	0.00225722324103117
0	5564	0.014589620754122734
0	5672	0.02008480206131935
0	5694	0.004068398382514715
0	5650	-0.008096668869256973
0	5650	0.0
0	5612	-0.006938527338206768
0	5510	-0.018567509949207306
0	5562	0.009447559714317322
0	5480	-0.014870158396661282
0	5542	0.011233648285269737
0	5566	0.004344520159065723
0	5526	-0.007236413657665253
0	5596	0.01265731267631054
0	6006	0.07408835738897324
0	7068	0.19136744737625122
0	7720	0.11644104868173599
1	5152	-0.4527609944343567
0	4754	-0.07033459097146988
0	5074	0.05689428374171257
0	5238	0.029247412458062172
0	5312	0.013203597627580166
0	5346	0.006067527923732996
0	5418	0.012853470630943775
0	5466	0.00856959167867899
0	5534	0.012137366458773613
0	5524	-0.0017844821559265256
0	5562	0.006777564994990826
0	5610	0.008557471446692944
0	5658	0.008552693761885166
0	5796	0.024562153965234756
0	5920	0.022029822692275047
0	6008	0.015601176768541336
0	6240	0.041048869490623474
0	6344	0.01834215223789215
0	6436	0.016159817576408386
0	6436	0.0
0	6212	-0.0389782153069973
0	5972	-0.04159301146864891
0	5634	-0.058438412845134735
0	5234	-0.06909656524658203
0	4946	-0.04983790963888168
0	4750	-0.0340392030775547
0	4608	-0.024772338569164276
0	4658	0.008773058652877808
0	4714	0.009903907775878906
0	4772	0.010401970706880093
0	4828	0.010223455727100372
0	4950	0.022316530346870422
0	5014	0.011693056672811508
0	5112	0.01791153848171234
0	5152	0.007316448725759983
0	5244	0.016844265162944794
0	5266	0.004030485171824694
0	5298	0.0058679706417024136
0	5364	0.012115130200982094
0	5328	-0.006615133490413427
0	5380	0.009566678665578365
0	5358	-0.004051963333040476
0	5372	0.0025825174525380135
0	5422	0.00923952553421259
0	5484	0.011483466252684593
0	5430	-0.010028724558651447
0	5468	0.007082593161612749
0	5504	0.0067421626299619675
0	5518	0.0026357737369835377
0	5544	0.004923372529447079
0	5508	-0.006855575833469629
0	5534	0.004973474889993668
0	5530	-0.0007672928622923791
0	5494	-0.006910230964422226
0	5500	0.0011497923405840993
0	5452	-0.009165903553366661
0	5478	0.004942777566611767
0	5452	-0.004915677011013031
0	5608	0.029347212985157967
0	5740	0.024693820625543594
0	5644	-0.017851386219263077
0	5640	-0.0007400646572932601
0	5598	-0.007737752050161362
0	5534	-0.011748724617064
0	5504	-0.005493029952049255
0	5524	0.0036541693843901157
0	5550	0.004742333199828863
0	5566	0.0029133285861462355
0	5520	-0.00836221780627966
0	5544	0.0043587759137153625
0	5758	0.03881499171257019
0	6244	0.08794894814491272
0	7770	0.2746843993663788
1	5792	-0.3509955108165741
0	4612	-0.20893336832523346
0	4958	0.06158044934272766
0	5090	0.0235590897500515
0	5248	0.028263071551918983
0	5290	0.007524454966187477
0	5426	0.024398118257522583
0	5628	0.03626397252082825
0	5688	0.010763747617602348
0	5778	0.01613076776266098
0	5774	-0.0007158623193390667
0	5842	0.012149365618824959
0	5882	0.0071321590803563595
0	5908	0.004624085500836372
0	5992	0.014901366084814072
0	6086	0.016622262075543404
0	6114	0.004937401041388512
0	6318	0.03589358553290367
0	6386	0.011917419731616974
0	6408	0.0038389055989682674
0	6364	-0.007641807664185762
0	6130	-0.04044617339968681
0	5886	-0.042023077607154846
0	5596	-0.049841880798339844
0	5158	-0.07525859773159027
0	4934	-0.03857856243848801
0	4640	-0.05080528184771538
0	4548	-0.01598147116601467
0	4498	-0.008746865205466747
0	4512	0.0024743143003433943
0	4592	0.014415626414120197
0	4582	-0.001815035822801292
0	4648	0.011981410905718803
0	4662	0.002546287840232253
0	4714	0.0094822458922863
0	4848	0.024514587596058846
0	4980	0.024213964119553566
0	5042	0.011404326185584068
0	5182	0.02584456279873848
0	5282	0.01851806230843067
0	5332	0.009287465363740921
0	5440	0.02011597715318203
0	5474	0.0063486527651548386
0	5430	-0.008236820809543133
0	5434	0.0007510420982725918
0	5380	-0.010174600407481194
0	5404	0.004542185924947262
0	5404	0.0
0	5378	-0.004971636459231377
0	5400	0.004233971703797579
0	5402	0.0003874116810038686
0	5390	-0.0023389989510178566
0	5436	0.00900947954505682
0	5414	-0.004321577493101358
0	5426	0.0023600368294864893
0	5492	0.012957436963915825
0	5534	0.008215640671551228
0	5634	0.01944768615067005
0	5522	-0.02162913605570793
0	5500	-0.004220758099108934
0	5496	-0.0007625923026353121
0	5416	-0.015164727345108986
0	5376	-0.007542615290731192
0	5446	0.013139452785253525
0	5402	-0.008218768984079361
0	5390	-0.002231921534985304
0	5348	-0.0077855633571743965
0	5594	0.045497700572013855
0	5970	0.06930535286664963
0	7082	0.20397931337356567
0	7134	0.009434761479496956
1	4536	-0.4662933349609375
0	4712	0.03176054358482361
0	5052	0.06163812056183815
0	5160	0.019623994827270508
0	5248	0.016016501933336258
0	5328	0.014572126790881157
0	5396	0.01239202544093132
0	5486	0.01640200801193714
0	5488	0.00036425006692297757
0	5540	0.009465445764362812
0	5612	0.013095036149024963
0	5642	0.005448931362479925
0	5738	0.017414860427379608
0	5848	0.019915509968996048
0	5998	0.027088526636362076
0	6150	0.02736634947359562
0	6268	0.02116667851805687
0	6450	0.03252362087368965
0	6502	0.0092413779348135
0	6448	-0.009540186263620853
0	6174	-0.048137735575437546
0	5974	-0.03498174995183945
0	5592	-0.06658300012350082
0	5222	-0.06443672627210617
0	4952	-0.04707058146595955
0	4734	-0.03810211643576622
0	4648	-0.015085073187947273
0	4564	-0.014816207811236382
0	4618	0.009604097343981266
0	4730	0.020214904099702835
0	4790	0.01098833978176117
0	4894	0.019016969949007034
0	4992	0.017899978905916214
0	5050	0.010597736574709415
0	5176	0.0230381041765213
0	5252	0.01390210073441267
0	5302	0.009150358848273754
0	5390	0.016113871708512306
0	5428	0.006962342653423548
0	5504	0.013929789885878563
0	5534	0.005499810446053743
0	5524	-0.0018341444665566087
0	5586	0.011379905045032501
0	5570	-0.0029394833836704493
0	5526	-0.008097364567220211
0	5542	0.002953046467155218
0	5506	-0.0066693015396595
0	5524	0.003350416198372841
0	5520	-0.0007488392875529826
0	5526	0.0011301847407594323
0	5516	-0.0018946091877296567
0	5468	-0.00913207232952118
0	5496	0.00534419110044837
0	5486	-0.0019098062766715884
0	5582	0.01830337941646576
0	5708	0.02392738312482834
0	5658	-0.009436811320483685
0	5614	-0.008251959457993507
0	5582	-0.005962288472801447
0	5570	-0.0022225514985620975
0	5534	-0.006633254699409008
0	5480	-0.009904622100293636
0	5508	0.005117395427078009
0	5548	0.007287655957043171
0	5534	-0.0025429886300116777
0	5594	0.01087495032697916
0	5822	0.041239600628614426
0	6408	0.10566173493862152
0	6916	0.09104051440954208
0	7562	0.11475196480751038
1	6346	-0.21340322494506836
0	4686	-0.28994619846343994
0	5026	0.059677742421627045
0	5200	0.030641354620456696
0	5314	0.020119067281484604
0	5360	0.008128357119858265
0	5442	0.014505229890346527
0	5436	-0.0010617589578032494
0	5474	0.006727965548634529
0	5534	0.01062598917633295
0	5534	0.0
0	5604	0.012395084835588932
0	5616	0.002123167272657156
0	5712	0.016973325982689857
0	5744	0.005650249309837818
0	5800	0.009878518059849739
0	5892	0.016220219433307648
0	6038	0.025705432519316673
0	6210	0.03020794317126274
0	6306	0.016798488795757294
0	6362	0.00975723098963499
0	6306	-0.009710533544421196
0	6150	-0.026922235265374184
0	5832	-0.05467800796031952
0	5550	-0.048409245908260345
0	5242	-0.052867669612169266
0	5012	-0.0395587757229805
0	4764	-0.04285368695855141
0	4756	-0.0013955922331660986
0	4734	-0.003886696882545948
0	4814	0.014372806064784527
0	4836	0.003989120479673147
0	4970	0.024275362491607666
0	4994	0.004349296912550926
0	5050	0.010161004029214382
0	5194	0.02617008052766323
0	5224	0.005457588471472263
0	5346	0.022223571315407753
0	5386	0.00729040103033185
0	5412	0.004741295240819454
0	5506	0.017154328525066376
0	5522	0.002920383121818304
0	5542	0.0036523009184747934
0	5596	0.0098656564950943
0	5548	-0.008775671944022179
0	5542	-0.00109827087726444
0	5574	0.0058666798286139965
0	5500	-0.013593113049864769
0	5482	-0.0033173607662320137
0	5508	0.004813269712030888
0	5532	0.004465005360543728
0	5594	0.011594275012612343
0	5640	0.008640552870929241
0	5558	-0.015452067367732525
0	5536	-0.004152823705226183
0	5540	0.0007551254238933325
0	5494	-0.008667687885463238
0	5532	0.007138652727007866
0	5482	-0.00934800785034895
0	5600	0.021961933001875877
0	5626	0.0048132105730473995
0	6242	0.1134675145149231
0	6696	0.08291126787662506
0	7424	0.1315678507089615
1	6336	-0.19379201531410217
0	4532	-0.31888943910598755
0	4994	0.08198660612106323
0	5234	0.042648471891880035
0	5300	0.01173611544072628
0	5362	0.011030458845198154
0	5390	0.004982974845916033
0	5404	0.0024932031519711018
0	5488	0.014969703741371632
0	5480	-0.0014261435717344284
0	5506	0.004638163838535547
0	5632	0.022482870146632195
0	5652	0.0035668001510202885
0	5748	0.01711270585656166
0	5830	0.014595595188438892
0	5912	0.01456552091985941
0	6108	0.034732066094875336
0	6284	0.03108222782611847
0	6334	0.008794455789029598
0	6328	-0.0010510580614209175
0	6202	-0.021973421797156334
0	6034	-0.02918490767478943
0	5780	-0.04399893805384636
0	5446	-0.057761482894420624
0	5070	-0.06505715847015381
0	4928	-0.02462797984480858
0	4778	-0.026116935536265373
0	4762	-0.002799584763124585
0	4818	0.009883864782750607
0	4944	0.022487148642539978
0	4994	0.00905709620565176
0	5032	0.00693962536752224
0	5112	0.014565404504537582
0	5162	0.009096863679587841
0	5250	0.016017474234104156
0	5312	0.011288462206721306
0	5320	0.001457017962820828
0	5422	0.018584877252578735
0	5478	0.010202347300946712
0	5538	0.010931748896837234
0	5576	0.006921003572642803
0	5580	0.0007282171864062548
0	5564	-0.002913788193836808
0	5520	-0.008017200045287609
0	5558	0.006933547090739012
0	5564	0.0010965847177430987
0	5496	-0.012454365380108356
0	5496	0.0
0	5646	0.027709702029824257
0	5606	-0.007420691195875406
0	5544	-0.011553656309843063
0	5510	-0.006361878477036953
0	5490	-0.0037545524537563324
0	5454	-0.006770480424165726
0	5476	0.004137308336794376
0	5500	0.004501969553530216
0	5468	-0.005981233436614275
0	5512	0.00818899180740118
0	5470	-0.007780563086271286
0	5950	0.08856415748596191
0	7070	0.2053789645433426
0	7772	0.12711557745933533
1	6012	-0.31350940465927124
0	4622	-0.24628505110740662
0	4922	0.053325116634368896
0	5126	0.03633168712258339
0	5248	0.02175179123878479
0	5276	0.004994351416826248
0	5316	0.007140986621379852
0	5408	0.016440117731690407
0	5426	0.003219037549570203
0	5454	0.005011873319745064
0	5534	0.01433041226118803
0	5552	0.0032249202486127615
0	5656	0.01862931251525879
0	5668	0.0021482789888978004
0	5762	0.016817746683955193
0	5948	0.033224962651729584
0	6002	0.009620066732168198
0	6204	0.03591025993227959
0	6328	0.021966081112623215
0	6300	-0.004937226418405771
0	6238	-0.010881902649998665
0	6028	-0.03669746220111847
0	5842	-0.032395150512456894
0	5504	-0.05874378979206085
0	5174	-0.05735207349061966
0	4940	-0.04073721542954445
0	4820	-0.020960453897714615
0	4712	-0.018936073407530785
0	4804	0.016248293220996857
0	4824	0.003579994896426797
0	4892	0.012389917857944965
0	4964	0.013208585791289806
0	4988	0.004393673036247492
0	5052	0.011711744591593742
0	5104	0.0095200901851058
0	5240	0.024920595809817314
0	5256	0.002932479605078697
0	5290	0.006233804393559694
0	5372	0.015045318752527237
0	5376	0.0007341604796238244
0	5440	0.011752176098525524
0	5458	0.0033072023652493954
0	5478	0.0036767860874533653
0	5526	0.008833922445774078
0	5508	-0.0033156091812998056
0	5554	0.008486459031701088
0	5508	-0.008507071062922478
0	5542	0.006307041738182306
0	5558	0.0029802187345921993
0	5510	-0.008983604609966278
0	5540	0.005642562638968229
0	5480	-0.011334726586937904
0	5486	0.0011373976012691855
0	5494	0.001519949291832745
0	5498	0.000760022783651948
0	5490	-0.0015169328544288874
0	5596	0.02002972923219204
0	5660	0.012034599669277668
0	5636	-0.004486316815018654
0	5586	-0.009298289194703102
0	5606	0.003701829817146063
0	5518	-0.016216615214943886
0	5468	-0.009182736277580261
0	5480	0.0021973997354507446
0	5472	-0.0014611160149797797
0	5454	-0.0032801623456180096
0	5506	0.009463722817599773
0	5528	0.003997819498181343
0	5630	0.018508661538362503
0	6216	0.10616839677095413
0	7564	0.2429908812046051
0	7664	0.01779887266457081
1	5082	-0.453629732131958
0	4766	-0.0556468665599823
0	5018	0.04457547143101692
0	5106	0.015611140988767147
0	5166	0.010672231204807758
0	5272	0.01889258623123169
0	5344	0.012853317894041538
0	5386	0.007507328875362873
0	5450	0.011448197066783905
0	5460	0.0017897412180900574
0	5504	0.00787580106407404
0	5554	0.008948812261223793
0	5618	0.011450381018221378
0	5760	0.025387365370988846
0	5822	0.011066816747188568
0	5930	0.01925179362297058
0	6058	0.022780394181609154
0	6198	0.024853836745023727
0	6306	0.019103772938251495
0	6288	-0.0031708749011158943
0	6170	-0.020693283528089523
0	6048	-0.021307313814759254
0	5722	-0.05674828961491585
0	5420	-0.0524943508207798
0	5166	-0.044159576296806335
0	4892	-0.04773075878620148
0	4800	-0.0160857904702425
0	4718	-0.014407028444111347
0	4712	-0.0010635029757395387
0	4770	0.010456730611622334
0	4850	0.01467835996299982
0	4932	0.015066697262227535
0	4958	0.004772393498569727
0	5082	0.022769004106521606
0	5216	0.024608828127384186
0	5204	-0.0022031015250831842
0	5276	0.013224111869931221
0	5270	-0.0011024682316929102
0	5318	0.008826017379760742
0	5374	0.010305357165634632
0	5378	0.000736485468223691
0	5376	-0.00036852771881967783
0	5414	0.007009690161794424
0	5440	0.004802127834409475
0	5492	0.009623213671147823
0	5492	0.0
0	5494	0.00037188545684330165
0	5534	0.0074638002552092075
0	5496	-0.007120015565305948
0	5542	0.00866279099136591
0	5534	-0.0015136607689782977
0	5556	0.004179331474006176
0	5524	-0.006098025478422642
0	5516	-0.0015264262910932302
0	5560	0.008390220813453197
0	5546	-0.0026629469357430935
0	5512	-0.00644045090302825
0	5536	0.0045258537866175175
0	5528	-0.0015009006019681692
0	5490	-0.007093080785125494
0	5536	0.008548066951334476
0	5548	0.0022204951383173466
0	5504	-0.008110997267067432
0	5514	0.0018372447229921818
0	5572	0.010627901181578636
0	5638	0.012067577801644802
0	5668	0.005470792297273874
0	5606	-0.011279426515102386
0	5600	-0.001089337863959372
0	5582	-0.0032624455634504557
0	5488	-0.017015833407640457
0	5476	-0.0021707932464778423
0	5440	-0.006508455146104097
0	5500	0.010845725424587727
0	5514	0.0025297547690570354
0	5472	-0.007588258478790522
0	5544	0.013010010123252869
0	5642	0.0177027378231287
0	6058	0.0750974789261818
0	7734	0.3015364706516266
1	6754	-0.17402833700180054
0	4548	-0.38893264532089233
0	4924	0.06668636947870255
0	5044	0.02135864645242691
0	5116	0.012851175852119923
0	5238	0.021833280101418495
0	5258	0.0035858144983649254
0	5330	0.012928557582199574
0	5380	0.008989248424768448
0	5386	0.0010796674760058522
0	5468	0.014764666557312012
0	5484	0.0028820866718888283
0	5592	0.019461562857031822
0	5678	0.015488983131945133
0	5706	0.005037964787334204
0	5844	0.024810029193758965
0	5892	0.008618935011327267
0	6046	0.027615392580628395
0	6216	0.030404560267925262
0	6312	0.017106810584664345
0	6312	0.0
0	6154	-0.02789744921028614
0	5894	-0.04572473466396332
0	5562	-0.05823199078440666
0	5304	-0.04523617401719093
0	4938	-0.06425110995769501
0	4752	-0.032754551619291306
0	4740	-0.002123067155480385
0	4680	-0.010672105476260185
0	4726	0.008249345235526562
0	4840	0.020818369463086128
0	4928	0.01625976152718067
0	4994	0.012166347354650497
0	5116	0.022479640319943428
0	5174	0.010682318359613419
0	5222	0.008837391622364521
0	5286	0.011784346774220467
0	5302	0.0029455802869051695
0	5288	-0.002577825915068388
0	5368	0.01473875530064106
0	5322	-0.008475721813738346
0	5372	0.009221008978784084
0	5372	0.0
0	5402	0.005543920211493969
0	5492	0.016660084947943687
0	5474	-0.003336422611027956
0	5532	0.010775328613817692
0	5514	-0.003351539373397827
0	5530	0.00298901554197073
0	5578	0.009005515836179256
0	5508	-0.013193606398999691
0	5578	0.01326058991253376
0	5572	-0.0011407710844650865
0	5546	-0.004953450057655573
0	5564	0.0034296601079404354
0	5508	-0.01065246295183897
0	5540	0.006065201014280319
0	5528	-0.002263183007016778
0	5468	-0.011260134167969227
0	5550	0.015313364565372467
0	5640	0.016721580177545547
0	5636	-0.0007395173888653517
0	5626	-0.0018407618626952171
0	5594	-0.005867683794349432
0	5616	0.004022281151264906
0	5560	-0.010211028158664703
0	5448	-0.020380187779664993
0	5510	0.011270815506577492
0	5450	-0.010893509723246098
0	5500	0.009069033898413181
0	5482	-0.0032622485887259245
0	5494	0.0021727322600781918
0	5662	0.03039586916565895
0	6136	0.0856100469827652
0	6886	0.1348629742860794
0	7790	0.1612078696489334
1	6134	-0.2912997007369995
0	4604	-0.2681889533996582
0	4922	0.05603919178247452
0	5154	0.04103047773241997
0	5182	0.00496436282992363
0	5300	0.02096162922680378
0	5308	0.0014234705595299602
0	5380	0.012831327505409718
0	5446	0.011773659847676754
0	5452	0.0010710842907428741
0	5522	0.012500149197876453
0	5558	0.006429336499422789
0	5588	0.005356824025511742
0	5654	0.01177660096436739
0	5808	0.02746175043284893
0	5908	0.01781451515853405
0	6042	0.023832954466342926
0	6174	0.02341948077082634
0	6284	0.019449520856142044
0	6322	0.0066925762221217155
0	6174	-0.025949737057089806
0	6104	-0.012221666052937508
0	5826	-0.04837025701999664
0	5520	-0.05312623083591461
0	5204	-0.05485603213310242
0	4936	-0.04659843072295189
0	4832	-0.018141644075512886
0	4764	-0.011919368989765644
0	4722	-0.007421456277370453
0	4796	0.013244717381894588
0	4930	0.02441987581551075
0	4958	0.005140255205333233
0	5028	0.012822861783206463
0	5172	0.02636139653623104
0	5222	0.00915225688368082
0	5216	-0.0010980027727782726
0	5312	0.017577052116394043
0	5294	-0.0032956169452518225
0	5382	0.016120366752147675
0	5372	-0.0018325758865103126
0	5392	0.0036669436376541853
0	5472	0.014679438434541225
0	5492	0.003671790938824415
0	5512	0.0036739492788910866
0	5546	0.006251148879528046
0	5544	-0.0003683060349430889
0	5538	-0.0011073924833908677
0	5578	0.007405578624457121
0	5552	-0.004831396508961916
0	5608	0.0104534812271595
0	5648	0.007500093895941973
0	5658	0.0018812079215422273
0	5550	-0.020374026149511337
0	5568	0.0034015749115496874
0	5524	-0.008312446996569633
0	5420	-0.019608089700341225
0	5478	0.010902118869125843
0	5450	-0.005241875071078539
0	5488	0.007083648815751076
0	5470	-0.003339517628774047
0	5534	0.011824552901089191
0	5706	0.031660713255405426
0	6592	0.16234441101551056
0	7420	0.15028132498264313
1	5892	-0.27360957860946655
0	4588	-0.23256920278072357
0	4918	0.05907626077532768
0	5152	0.04198916256427765
0	5282	0.023347143083810806
0	5366	0.015094882808625698
0	5402	0.006469467654824257
0	5420	0.003234540345147252
0	5504	0.015099222771823406
0	5544	0.00718958955258131
0	5546	0.00035941056557931006
0	5662	0.020845813676714897
0	5664	0.00035915669286623597
0	5718	0.00968992244452238
0	5878	0.02868685871362686
0	6062	0.03292573615908623
0	6158	0.01713225059211254
0	6272	0.020283013582229614
0	6280	0.001418205094523728
0	6166	-0.020122619345784187
0	6072	-0.01653415895998478
0	5670	-0.07048344612121582
0	5340	-0.05777513235807419
0	4986	-0.06202691048383713
0	4900	-0.015109632164239883
0	4766	-0.023624269291758537
0	4806	0.007081317249685526
0	4764	-0.00746746314689517
0	4872	0.01930985227227211
0	4924	0.009393629617989063
0	4970	0.00843654852360487
0	5050	0.0147554287686944
0	5126	0.013977954164147377
0	5182	0.010286428034305573
0	5246	0.011753758415579796
0	5280	0.006245560944080353
0	5348	0.012497702613472939
0	5376	0.005147815681993961
0	5366	-0.001839001546613872
0	5478	0.020614255219697952
0	5462	-0.0029460866935551167
0	5562	0.01842254027724266
0	5544	-0.0033180948812514544
0	5566	0.004058441612869501
0	5574	0.0014771776041015983
0	5532	-0.007769720163196325
0	5548	0.002969598863273859
0	5560	0.002235635882243514
0	5514	-0.008607999421656132
0	5560	0.008649325929582119
0	5522	-0.007172337267547846
0	5498	-0.004545626696199179
0	5624	0.023890482261776924
0	5606	-0.003406811272725463
0	5610	0.0007541193626821041
0	5564	-0.008633849211037159
0	5544	-0.0037351991049945354
0	5488	-0.010410727933049202
0	5470	-0.0033313590101897717
0	5440	-0.005531857255846262
0	5500	0.011028735898435116
0	5498	-0.00036643460043706
0	5448	-0.009135869331657887
0	5482	0.006200231146067381
0	6038	0.10120745748281479
0	6776	0.13369403779506683
0	7358	0.10448958724737167
1	5412	-0.34522318840026855
0	4742	-0.11883365362882614
0	5008	0.04735342785716057
0	5190	0.032490331679582596
0	5248	0.010370846837759018
0	5376	0.02293030172586441
0	5338	-0.006814269348978996
0	5378	0.007182704284787178
0	5450	0.012944052927196026
0	5414	-0.006475208327174187
0	5500	0.015480990521609783
0	5496	-0.0007203053683042526
0	5600	0.018729964271187782
0	5578	-0.003961156588047743
0	5642	0.011519493535161018
0	5646	0.0007193468045443296
0	5778	0.02373531460762024
0	5916	0.024788636714220047
0	6020	0.018647126853466034
0	6122	0.018238820135593414
0	6172	0.008909902535378933
0	6226	0.009583757258951664
0	6126	-0.017668677493929863
0	5994	-0.023228803649544716
0	5716	-0.048779916018247604
0	5318	-0.06974706053733826
0	5060	-0.04524728283286095
0	4894	-0.02918459102511406
0	4842	-0.009203866124153137
0	4832	-0.001790403388440609
0	4898	0.011997527442872524
0	4930	0.005835156887769699
0	4968	0.006921339780092239
0	5064	0.017489736899733543
0	5152	0.016044534742832184
0	5172	0.003648614278063178
0	5266	0.017169786617159843
0	5276	0.0018273739842697978
0	5324	0.008776849135756493
0	5322	-0.00036598308361135423
0	5412	0.016478486359119415
0	5426	0.002564697526395321
0	5476	0.009163551032543182
0	5506	0.005502298939973116
0	5534	0.005137740168720484
0	5546	0.0022033441346138716
0	5540	-0.0011023468105122447
0	5612	0.013247470371425152
0	5554	-0.010691506788134575
0	5514	-0.007394626270979643
0	5506	-0.0014844870893284678
0	5546	0.0074531384743750095
0	5500	-0.008607462048530579
0	5550	0.009392610751092434
0	5472	-0.014693324454128742
0	5590	0.022262470796704292
0	5662	0.013560683466494083
0	5616	-0.008631150238215923
0	5550	-0.012328152544796467
0	5596	0.008554637432098389
0	5500	-0.01776900328695774
0	5468	-0.005901082884520292
0	5502	0.0062492345459759235
0	5480	-0.004030435811728239
0	5478	-0.00036547481431625783
0	5512	0.006200758274644613
0	5538	0.004731975961476564
0	5662	0.022530706599354744
0	6360	0.126530259847641
0	7304	0.1700594425201416
0	7178	-0.022431636229157448
1	5032	-0.3780876100063324
0	4822	-0.037084128707647324
0	5078	0.045382022857666016
0	5222	0.02559211291372776
0	5222	0.0
0	5274	0.009276548400521278
0	5322	0.008576533757150173
0	5350	0.005011633969843388
0	5432	0.014694813638925552
0	5480	0.008606057614088058
0	5510	0.005379621870815754
0	5574	0.011478996835649014
0	5664	0.01613520085811615
0	5760	0.017199164256453514
0	5852	0.01645423285663128
0	6040	0.033571429550647736
0	6136	0.017104372382164
0	6174	0.006749636027961969
0	6174	0.0
0	6012	-0.02857142873108387
0	5792	-0.038684263825416565
0	5560	-0.0407169945538044
0	5270	-0.05087897926568985
0	5166	-0.01826869137585163
0	4928	-0.04188371077179909
0	4842	-0.015186476521193981
0	4824	-0.0031916401349008083
0	4882	0.010335365310311317
0	4970	0.015820130705833435
0	5002	0.005834376439452171
0	5088	0.015890026465058327
0	5092	0.0007388161611743271
0	5174	0.015120595693588257
0	5256	0.015111679211258888
0	5268	0.002211003564298153
0	5340	0.01326227467507124
0	5384	0.008101440034806728
0	5390	0.001104321563616395
0	5410	0.0036801688838750124
0	5454	0.008097464218735695
0	5444	-0.0018406263552606106
0	5512	0.012521329335868359
0	5484	-0.005157804582268
0	5494	0.0018441112479194999
0	5532	0.0070190997794270515
0	5502	-0.005552333779633045
0	5504	0.0003713882470037788
0	5552	0.00894832331687212
0	5488	-0.011977393180131912
0	5534	0.008645749650895596
0	5536	0.0003770312468986958
0	5520	-0.003021109849214554
0	5504	-0.0030218707397580147
0	5520	0.0030174257699400187
0	5510	-0.0018817035015672445
0	5560	0.009374297223985195
0	5564	0.0007465936942026019
0	5554	-0.0018579302122816443
0	5518	-0.006660827901214361
0	5504	-0.002581596840173006
0	5542	0.006985636427998543
0	5636	0.017232319340109825
0	5642	0.0010962908854708076
0	5624	-0.0032795248553156853
0	5572	-0.009453055448830128
0	5572	0.0
0	5578	0.0010872059501707554
0	5498	-0.01447911374270916
0	5464	-0.0061496165581047535
0	5472	0.0014464976266026497
0	5516	0.007954874075949192
0	5508	-0.0014457134529948235
0	5524	0.0028914965223520994
0	5840	0.0570933036506176
0	6272	0.07788929343223572
0	7500	0.22042721509933472
1	6404	-0.19440896809101105
0	4746	-0.292540043592453
0	4982	0.04183853045105934
0	5142	0.028450176119804382
0	5216	0.01318885013461113
0	5322	0.018928121775388718
0	5302	-0.0035755576100200415
0	5352	0.00894966721534729
0	5416	0.011467067524790764
0	5418	0.00035854714224115014
0	5460	0.007535885088145733
0	5512	0.009335950948297977
0	5554	0.007542470935732126
0	5674	0.021545276045799255
0	5696	0.003945952281355858
0	5788	0.01648607663810253
0	5900	0.020051801577210426
0	5974	0.013228143565356731
0	6156	0.03246637433767319
0	6154	-0.00035553870839066803
0	6224	0.012401087209582329
0	6110	-0.020119303837418556
0	6048	-0.010902823880314827
0	5820	-0.03995747119188309
0	5620	-0.034979306161403656
0	5338	-0.04929093271493912
0	5102	-0.04129146412014961
0	4986	-0.02034587971866131
0	4834	-0.02679389901459217
0	4862	0.004977777600288391
0	4860	-0.0003612020518630743
0	4940	0.01458363700658083
0	4944	0.0007283232407644391
0	5012	0.012384352274239063
0	5050	0.006926133297383785
0	5066	0.0029192110523581505
0	5176	0.020100871101021767
0	5234	0.010606780648231506
0	5292	0.010614416562020779
0	5272	-0.0036629142705351114
0	5342	0.01283163670450449
0	5394	0.009538950398564339
0	5364	-0.005507214460521936
0	5438	0.013600273989140987
0	5440	0.00036810716846957803
0	5420	-0.0036868625320494175
0	5490	0.01293326448649168
0	5454	-0.006668230518698692
0	5536	0.01523767039179802
0	5550	0.0026115828659385443
0	5534	-0.0029959180392324924
0	5544	0.001880547613836825
0	5524	-0.0037744869478046894
0	5540	0.0030295762699097395
0	5524	-0.0030349399894475937
0	5508	-0.0030367830768227577
0	5552	0.008342181332409382
0	5524	-0.00529360631480813
0	5566	0.007913578301668167
0	5520	-0.008627587929368019
0	5560	0.007471514865756035
0	5564	0.0007439092150889337
0	5520	-0.008151469752192497
0	5528	0.0014768321998417377
0	5546	0.0033123549073934555
0	5498	-0.008806154131889343
0	5582	0.01537016499787569
0	5658	0.013871988281607628
0	5616	-0.007646373938769102
0	5582	-0.006177774630486965
0	5556	-0.004715327639132738
0	5518	-0.006882727611809969
0	5440	-0.014117135666310787
0	5484	0.007959863170981407
0	5482	-0.00036171163083054125
0	5476	-0.0010848601814359426
0	5562	0.015544416382908821
0	5604	0.007588167674839497
0	5886	0.050903141498565674
0	7166	0.2305641621351242
0	7062	-0.018553316593170166
1	5010	-0.36277490854263306
0	5132	0.02163657546043396
0	5224	0.01635400578379631
0	5264	0.007123775780200958
0	5342	0.013912836089730263
0	5406	0.011426939629018307
0	5412	0.0010722072329372168
0	5494	0.014663280919194221
0	5532	0.0067980969324707985
0	5606	0.013237451203167439
0	5656	0.0089417714625597
0	5712	0.010009294375777245
0	5836	0.022138113155961037
0	5912	0.013543696142733097
0	6096	0.03271886706352234
0	6174	0.013820964843034744
0	6174	0.0
0	6158	-0.002816637046635151
0	5892	-0.04667812958359718
0	5658	-0.04098839312791824
0	5402	-0.0448153093457222
0	5186	-0.03783852979540825
0	4914	-0.04771929979324341
0	4846	-0.011969723738729954
0	4806	-0.0070673879235982895
0	4812	0.00106430787127465
0	4872	0.010690486058592796
0	4898	0.004652771633118391
0	5016	0.02124161459505558
0	5086	0.012765646912157536
0	5118	0.005906674545258284
0	5220	0.018815021961927414
0	5318	0.01806740276515484
0	5316	-0.00036850961623713374
0	5378	0.011420151218771935
0	5408	0.005524658132344484
0	5354	-0.00994426291435957
0	5430	0.014000613242387772
0	5408	-0.004054402466863394
0	5428	0.0036886301822960377
0	5476	0.008862410672008991
0	5462	-0.0025877365842461586
0	5514	0.009626421146094799
0	5492	-0.0040808250196278095
0	5550	0.010786550119519234
0	5564	0.0026124927680939436
0	5548	-0.002997078001499176
0	5548	0.0
0	5522	-0.004908129572868347
0	5530	0.0015137180453166366
0	5512	-0.003408617340028286
0	5500	-0.0022708349861204624
0	5552	0.009820832870900631
0	5506	-0.008652905933558941
0	5542	0.006743930280208588
0	5574	0.005967180710285902
0	5550	-0.004454287700355053
0	5514	-0.006653524003922939
0	5508	-0.0011047282023355365
0	5532	0.004405609797686338
0	5546	0.002562944544479251
0	5542	-0.0007303623715415597
0	5530	-0.0021868012845516205
0	5540	0.0018199908081442118
0	5542	0.0003635041939560324
0	5580	0.006899723783135414
0	5612	0.005804251413792372
0	5658	0.008330617100000381
0	5594	-0.011574492789804935
0	5608	0.002529084449633956
0	5592	-0.0028872527182102203
0	5498	-0.016950782388448715
0	5470	-0.005048077087849379
0	5420	-0.009016807191073895
0	5496	0.013711482286453247
0	5474	-0.003970402292907238
0	5460	-0.002527988515794277
0	5532	0.013007973320782185
0	5574	0.007588715758174658
0	5910	0.06069071963429451
0	7054	0.20616576075553894
0	7058	0.0007142431568354368
1	4900	-0.381793737411499
0	4954	0.009590566158294678
0	5160	0.03670618310570717
0	5164	0.0007143622497096658
0	5258	0.016828587278723717
0	5306	0.008608321659266949
0	5350	0.007900784723460674
0	5436	0.015457062050700188
0	5446	0.001798367011360824
0	5452	0.0010796674760058522
0	5528	0.01368317473679781
0	5552	0.0043210540898144245
0	5602	0.009001548402011395
0	5656	0.009718173183500767
0	5764	0.01942748948931694
0	5916	0.02731749229133129
0	5966	0.008972151204943657
0	6116	0.026856692507863045
0	6218	0.018207348883152008
0	6198	-0.003556820098310709
0	6156	-0.007438455242663622
0	5952	-0.03598391264677048
0	5606	-0.06084122881293297
0	5358	-0.043580640107393265
0	5034	-0.05697471275925636
0	4844	-0.0334947369992733
0	4724	-0.021240441128611565
0	4672	-0.009250584058463573
0	4682	0.001792114693671465
0	4716	0.0061807697638869286
0	4776	0.0110642584040761
0	4872	0.017716316506266594
0	4898	0.0048005906865000725
0	4978	0.014794905669987202
0	5096	0.02184753492474556
0	5114	0.0033360105007886887
0	5218	0.019297616556286812
0	5208	-0.0018570561660453677
0	5230	0.004091298207640648
0	5266	0.006703827064484358
0	5258	-0.0014914614148437977
0	5322	0.011951744556427002
0	5342	0.0037402750458568335
0	5380	0.007118060253560543
0	5430	0.00938203651458025
0	5400	-0.0056410059332847595
0	5474	0.013959630392491817
0	5464	-0.0018922907765954733
0	5476	0.00228012609295547
0	5506	0.005727231036871672
0	5500	-0.0011505126021802425
0	5454	-0.008857736364006996
0	5506	0.010045203380286694
0	5458	-0.009278470650315285
0	5500	0.008113433606922626
0	5502	0.0003851981309708208
0	5492	-0.0019178887596353889
0	5494	0.0003817036922555417
0	5460	-0.006455205846577883
0	5484	0.004534290637820959
0	5530	0.008648892864584923
0	5498	-0.005988322664052248
0	5510	0.0022368861827999353
0	5496	-0.0025998142082244158
0	5512	0.002961719874292612
0	5548	0.006646808236837387
0	5500	-0.008838802576065063
0	5560	0.011029412038624287
0	5500	-0.011005673557519913
0	5492	-0.0014650046359747648
0	5530	0.006949185859411955
0	5508	-0.004016553051769733
0	5582	0.013494948856532574
0	5692	0.020030835643410683
0	5610	-0.014903852716088295
0	5594	-0.0029049008153378963
0	5570	-0.004352241288870573
0	5532	-0.006887052208185196
0	5512	-0.0036232760176062584
0	5440	-0.013040957972407341
0	5444	0.0007247864850796759
0	5498	0.009787928313016891
0	5418	-0.01449678000062704
0	5444	0.004713959526270628
0	5592	0.026835575699806213
0	5818	0.04095587879419327
0	6440	0.11250452697277069
0	7500	0.19063833355903625
0	6816	-0.12155389785766602
1	4780	-0.3589351773262024
0	5088	0.05452420935034752
0	5192	0.01845891773700714
0	5266	0.013158051297068596
0	5344	0.01388938445597887
0	5368	0.0042775156907737255
0	5440	0.012843535281717777
0	5426	-0.0024989587254822254
0	5486	0.01071454118937254
0	5532	0.008218101225793362
0	5548	0.002857925370335579
0	5648	0.01785608008503914
0	5654	0.0010706129251047969
0	5742	0.0156886987388134
0	5834	0.0163862407207489
0	5894	0.01067767571657896
0	6072	0.03162383288145065
0	6218	0.025865428149700165
0	6302	0.014824749901890755
0	6344	0.007378950249403715
0	6238	-0.01853276416659355
0	6026	-0.036893945187330246
0	5786	-0.04162619635462761
0	5502	-0.04917578399181366
0	5264	-0.041190724819898605
0	4960	-0.05266805365681648
0	4822	-0.023996105417609215
0	4750	-0.012592402286827564
0	4728	-0.0038859646301716566
0	4806	0.014006105251610279
0	4868	0.01126862969249487
0	4900	0.005812968127429485
0	4972	0.013094083406031132
0	5110	0.025130508467555046
0	5152	0.007655665278434753
0	5248	0.01751909963786602
0	5268	0.003652478801086545
0	5290	0.00402193795889616
0	5374	0.015369227156043053
0	5370	-0.0007323682075366378
0	5392	0.0040320116095244884
0	5448	0.010273093357682228
0	5482	0.006244872231036425
0	5508	0.004780524875968695
0	5558	0.009206521324813366
0	5530	-0.0051644002087414265
0	5592	0.01146110612899065
0	5578	-0.0025956688914448023
0	5552	-0.0048396703787148
0	5620	0.012716777622699738
0	5580	-0.007514371071010828
0	5580	0.0
0	5578	-0.00037833405076526105
0	5542	-0.006818956695497036
0	5594	0.009847116656601429
0	5556	-0.007181011606007814
0	5582	0.004894946701824665
0	5582	0.0
0	5550	-0.005964956246316433
0	5602	0.0096437968313694
0	5544	-0.010703871957957745
0	5620	0.01396767795085907
0	5594	-0.004757431801408529
0	5564	-0.00546859810128808
0	5582	0.0032721322495490313
0	5586	0.0007252508075907826
0	5596	0.0018094307743012905
0	5580	-0.002889373106881976
0	5556	-0.004326506983488798
0	5546	-0.0018007418839260936
0	5720	0.03129984438419342
0	5716	-0.0007181242108345032
0	5698	-0.0032263847533613443
0	5682	-0.0028642008546739817
0	5644	-0.006795422174036503
0	5584	-0.010724116116762161
0	5508	-0.013579512014985085
0	5484	-0.004290413111448288
0	5524	0.0071546961553394794
0	5510	-0.0025045620277523994
0	5494	-0.0028642353136092424
0	5608	0.020418154075741768
0	5788	0.03223380073904991
0	6018	0.04113607108592987
0	7026	0.17977313697338104
0	7468	0.07816368341445923
1	5786	-0.2941313683986664
0	4882	-0.15789473056793213
0	5080	0.034724656492471695
0	5212	0.023213552311062813
0	5312	0.01762632094323635
0	5344	0.005648121703416109
0	5370	0.004596563056111336
0	5434	0.011329572647809982
0	5496	0.010983949527144432
0	5474	-0.0038995107170194387
0	5482	0.001418942934833467
0	5620	0.024493271484971046
0	5622	0.0003548910026438534
0	5676	0.009578317403793335
0	5754	0.013824720866978168
0	5822	0.012049900367856026
0	5968	0.0258556567132473
0	6042	0.013084067963063717
0	6238	0.03458172455430031
0	6314	0.013362559489905834
0	6370	0.009804150089621544
0	6338	-0.005574330221861601
0	6214	-0.0214939434081316
0	6072	-0.024516291916370392
0	5752	-0.05506987124681473
0	5532	-0.037804584950208664
0	5196	-0.057763054966926575
0	5022	-0.03001483529806137
0	4784	-0.0412912480533123
0	4686	-0.01722561940550804
0	4700	0.002501578303053975
0	4674	-0.004676034674048424
0	4758	0.015126049518585205
0	4872	0.020567964762449265
0	4938	0.01193216722458601
0	5002	0.011596724390983582
0	5072	0.01271017175167799
0	5130	0.010550313629209995
0	5216	0.015672456473112106
0	5268	0.009492515586316586
0	5316	0.0087733194231987
0	5342	0.004757025744765997
0	5400	0.010629848577082157
0	5436	0.006606798153370619
0	5476	0.007351680193096399
0	5488	0.002209266647696495
0	5540	0.009593152441084385
0	5516	-0.0044392929412424564
0	5576	0.011134342290461063
0	5570	-0.0011180124711245298
0	5530	-0.007488019298762083
0	5562	0.006021980196237564
0	5562	0.0
0	5516	-0.008734840899705887
0	5558	0.008003455586731434
0	5548	-0.0019079357152804732
0	5516	-0.006104773376137018
0	5526	0.0019038673490285873
0	5544	0.0034160350915044546
0	5538	-0.001133230049163103
0	5576	0.007138831540942192
0	5534	-0.007847240194678307
0	5532	-0.00037168734706938267
0	5546	0.0025893959682434797
0	5534	-0.0022102976217865944
0	5588	0.00991007499396801
0	5536	-0.009508948773145676
0	5546	0.001823486527428031
0	5554	0.0014551097992807627
0	5536	-0.0032673014793545008
0	5688	0.027545878663659096
0	5646	-0.0075942957773804665
0	5636	-0.0018048586789518595
0	5626	-0.0018022996373474598
0	5576	-0.009001224301755428
0	5538	-0.006836827844381332
0	5480	-0.010432030074298382
0	5490	0.001799273188225925
0	5524	0.006118482910096645
0	5464	-0.010800691321492195
0	5508	0.007925547659397125
0	5702	0.034949079155921936
0	5790	0.015839872881770134
0	6090	0.05392579734325409
0	7322	0.22069624066352844
0	6878	-0.07870759069919586
1	4678	-0.3869515061378479
0	4972	0.0519661121070385
0	5152	0.031920175999403
0	5228	0.013508709147572517
0	5314	0.015314299613237381
0	5312	-0.0003567012317944318
0	5416	0.0185729768127203
0	5452	0.006433549802750349
0	5466	0.0025033378042280674
0	5518	0.009301882237195969
0	5534	0.002863312838599086
0	5586	0.009305876679718494
0	5650	0.011450654827058315
0	5690	0.007152564357966185
0	5834	0.02572561800479889
0	5882	0.008567756973206997
0	6022	0.02495425008237362
0	6156	0.023830130696296692
0	6292	0.024110056459903717
0	6408	0.020477816462516785
0	6322	-0.015104502439498901
0	6250	-0.012583599425852299
0	6018	-0.040368419140577316
0	5816	-0.03504794463515282
0	5500	-0.0547160878777504
0	5232	-0.04640692472457886
0	5014	-0.03785160183906555
0	4770	-0.04255715012550354
0	4706	-0.011248857714235783
0	4654	-0.009281957522034645
0	4684	0.005426786839962006
0	4732	0.008682544343173504
0	4776	0.007970533333718777
0	4900	0.022513527423143387
0	4928	0.005093811079859734
0	5040	0.020423049107193947
0	5054	0.0025571088772267103
0	5130	0.013912109658122063
0	5226	0.017607785761356354
0	5286	0.011021037586033344
0	5358	0.013244058936834335
0	5400	0.007734047248959541
0	5412	0.002212253399193287
0	5480	0.012554464861750603
0	5498	0.0033275410532951355
0	5534	0.006668889429420233
0	5494	-0.00742583442479372
0	5546	0.009685230441391468
0	5508	-0.007104574702680111
0	5482	-0.004884892143309116
0	5518	0.006803149823099375
0	5526	0.001519506680779159
0	5478	-0.009159023873507977
0	5484	0.0011488237651064992
0	5510	0.004988807253539562
0	5480	-0.005755947902798653
0	5526	0.008811810053884983
0	5472	-0.010310590267181396
0	5558	0.016347531229257584
0	5474	-0.015881618484854698
0	5508	0.0063952249474823475
0	5584	0.014221735298633575
0	5604	0.003722777124494314
0	5696	0.017037248238921165
0	5656	-0.0073712789453566074
0	5646	-0.0018346154829487205
0	5590	-0.010235914029181004
0	5562	-0.00510129751637578
0	5524	-0.006905073300004005
0	5418	-0.019226815551519394
0	5470	0.009424501098692417
0	5482	0.0021734144538640976
0	5506	0.0043446775525808334
0	5516	0.0018092561513185501
0	5560	0.007958998903632164
0	5786	0.040865037590265274
0	6302	0.09316097944974899
0	7004	0.1261289268732071
0	7462	0.08157691359519958
1	5720	-0.30671894550323486
0	4708	-0.17793719470500946
0	5128	0.07419970631599426
0	5204	0.013458156026899815
0	5260	0.00993259996175766
0	5328	0.012077009305357933
0	5324	-0.0007111785234883428
0	5416	0.01637224294245243
0	5396	-0.003561507211998105
0	5484	0.01567770354449749
0	5486	0.00035646811011247337
0	5558	0.01283193752169609
0	5572	0.002494357991963625
0	5594	0.003919984679669142
0	5632	0.0067712850868701935
0	5684	0.009269492700695992
0	5812	0.02281341701745987
0	5906	0.01673709787428379
0	6002	0.017061207443475723
0	6114	0.01985299214720726
0	6274	0.028262892737984657
0	6332	0.010193918831646442
0	6292	-0.006994963623583317
0	6214	-0.013576078228652477
0	5914	-0.05200207978487015
0	5664	-0.04323564097285271
0	5306	-0.061876337975263596
0	5100	-0.03570355474948883
0	4806	-0.05131188780069351
0	4714	-0.016264762729406357
0	4718	0.0007188039598986506
0	4770	0.009400875307619572
0	4832	0.011204549111425877
0	4902	0.01267289463430643
0	4970	0.012333289720118046
0	5016	0.00835776049643755
0	5104	0.016019027680158615
0	5152	0.008749331347644329
0	5204	0.009493670426309109
0	5316	0.020471828058362007
0	5398	0.015003658831119537
0	5420	0.004027533810585737
0	5492	0.01319212932139635
0	5512	0.0036662714555859566
0	5536	0.004401731304824352
0	5556	0.003670263336971402
0	5544	-0.0022038838360458612
0	5514	-0.005518763791769743
0	5502	-0.00221282453276217
0	5532	0.005549116060137749
0	5464	-0.012623293325304985
0	5542	0.014552600681781769
0	5474	-0.012749521993100643
0	5506	0.006030605174601078
0	5484	-0.004164563491940498
0	5502	0.003416640218347311
0	5502	0.0
0	5490	-0.0022772701922804117
0	5634	0.027259990572929382
0	5602	-0.00602628942579031
0	5604	0.0003745552385225892
0	5608	0.0007449898985214531
0	5522	-0.015934385359287262
0	5514	-0.001475978409871459
0	5452	-0.011395941488444805
0	5466	0.0025657000951468945
0	5512	0.008407047018408775
0	5518	0.0010938525665551424
0	5506	-0.0021828501485288143
0	5612	0.019246598705649376
0	5794	0.032986950129270554
0	6388	0.10740374773740768
0	7584	0.21499964594841003
1	6506	-0.19138813018798828
0	4520	-0.3505324423313141
0	4996	0.08452004939317703
0	5208	0.037768565118312836
0	5270	0.011067608371376991
0	5336	0.011798777617514133
0	5340	0.000715785485226661
0	5434	0.016840243712067604
0	5440	0.0010751017834991217
0	5454	0.0025101001374423504
0	5538	0.015062402002513409
0	5556	0.00322704017162323
0	5668	0.020070726051926613
0	5758	0.01611228473484516
0	5864	0.018947744742035866
0	6032	0.029963616281747818
0	6198	0.029537014663219452
0	6272	0.013120722956955433
0	6342	0.012362685054540634
0	6250	-0.0161781944334507
0	5976	-0.047978147864341736
0	5662	-0.05483438819646835
0	5404	-0.044999998062849045
0	5056	-0.0607195608317852
0	4810	-0.04303658381104469
0	4740	-0.012296953238546848
0	4702	-0.006705567240715027
0	4758	0.009935067035257816
0	4756	-0.00035701110027730465
0	4868	0.020188668742775917
0	4942	0.01356023270636797
0	4988	0.008510638028383255
0	5046	0.0106999222189188
0	5056	0.0018442472210153937
0	5174	0.021782469004392624
0	5222	0.0088659031316638
0	5242	0.003696720814332366
0	5360	0.021823832765221596
0	5404	0.0081414133310318
0	5496	0.017026737332344055
0	5488	-0.0014802023069933057
0	5558	0.01295576523989439
0	5594	0.006662882398813963
0	5550	-0.008147242479026318
0	5590	0.007416105363518
0	5544	-0.008542987518012524
0	5516	-0.005215836223214865
0	5512	-0.0007482882938347757
0	5512	0.0
0	5524	0.0022673453204333782
0	5506	-0.003416640218347311
0	5492	-0.002665312960743904
0	5524	0.006098723039031029
0	5518	-0.0011426395503804088
0	5492	-0.004936959128826857
0	5496	0.0007562675746157765
0	5502	0.0011290221009403467
0	5526	0.004493540618568659
0	5496	-0.005590131506323814
0	5604	0.020032398402690887
0	5640	0.006647217553108931
0	5616	-0.004412521608173847
0	5592	-0.004395604599267244
0	5586	-0.0010952502489089966
0	5502	-0.015284213237464428
0	5464	-0.0069005596451461315
0	5472	0.0014506243169307709
0	5452	-0.003621526528149843
0	5516	0.011582452803850174
0	5500	-0.0028936578892171383
0	5550	0.009042463265359402
0	5706	0.02820194512605667
0	6104	0.07188700139522552
0	7002	0.1617008000612259
0	6936	-0.011781786568462849
1	4612	-0.4115653932094574
0	5128	0.09188579767942429
0	5226	0.01749146170914173
0	5250	0.004290924407541752
0	5320	0.01253476832062006
0	5402	0.014701488427817822
0	5410	0.0014351834543049335
0	5452	0.0075384099036455154
0	5534	0.014724190346896648
0	5512	-0.003950014244765043
0	5638	0.022620102390646935
0	5656	0.003228699555620551
0	5738	0.014694989658892155
0	5888	0.026847077533602715
0	5992	0.018570544198155403
0	6122	0.0231596939265728
0	6246	0.02202773652970791
0	6340	0.016636382788419724
0	6360	0.00352410483174026
0	6202	-0.027714436873793602
0	6100	-0.017818668857216835
0	5832	-0.04664492979645729
0	5540	-0.05071616545319557
0	5108	-0.07499392330646515
0	4834	-0.047678153961896896
0	4706	-0.02235938049852848
0	4698	-0.0014043629635125399
0	4716	0.0031785648316144943
0	4772	0.009970326907932758
0	4834	0.011186623945832253
0	4842	0.0014619170688092709
0	5030	0.03430698812007904
0	5050	0.003651856444776058
0	5086	0.006580390501767397
0	5210	0.02268845960497856
0	5220	0.001830943045206368
0	5284	0.01173106487840414
0	5346	0.011373225599527359
0	5378	0.00587385892868042
0	5440	0.01139147486537695
0	5462	0.004043919499963522
0	5468	0.0011040777899324894
0	5544	0.014001130126416683
0	5536	-0.0014755610609427094
0	5516	-0.0036969033535569906
0	5574	0.01075255498290062
0	5518	-0.010417054407298565
0	5542	0.004484696313738823
0	5494	-0.009014197625219822
0	5496	0.00037763873115181923
0	5512	0.0030345944687724113
0	5492	-0.0038073966279625893
0	5472	-0.003815628821030259
0	5504	0.006107646971940994
0	5454	-0.009519216604530811
0	5522	0.012895395047962666
0	5534	0.002263980219140649
0	5534	0.0
0	5580	0.008589247241616249
0	5512	-0.012633612379431725
0	5550	0.007030440494418144
0	5550	0.0
0	5532	-0.0033051781356334686
0	5550	0.003295455826446414
0	5588	0.006937429308891296
0	5642	0.00983582716435194
0	5684	0.007630536332726479
0	5620	-0.011599386110901833
0	5602	-0.003256936091929674
0	5560	-0.007589264307171106
0	5496	-0.011556240729987621
0	5508	0.002166351769119501
0	5486	-0.00397068914026022
0	5460	-0.0046942709013819695
0	5506	0.008309048600494862
0	5482	-0.004335416946560144
0	5560	0.014097914099693298
0	5806	0.044451404362916946
0	6120	0.05664870887994766
0	7502	0.24839138984680176
0	7394	-0.019180677831172943
1	4780	-0.45912811160087585
0	4806	0.004585807677358389
0	4996	0.03364340215921402
0	5092	0.017049895599484444
0	5244	0.02705364301800728
0	5282	0.006774584297090769
0	5308	0.004642194136977196
0	5386	0.013945339247584343
0	5432	0.008233694359660149
0	5462	0.005372364539653063
0	5494	0.005733533762395382
0	5554	0.010753972455859184
0	5640	0.015412001870572567
0	5706	0.011821459978818893
0	5818	0.02004653587937355
0	5958	0.025031885132193565
0	6082	0.022134952247142792
0	6262	0.03204329311847687
0	6370	0.019150974228978157
0	6368	-0.0003529577807057649
0	6302	-0.011588163673877716
0	6116	-0.03250649571418762
0	5828	-0.05014859139919281
0	5586	-0.04204892739653587
0	5182	-0.07016487419605255
0	4910	-0.047321904450654984
0	4778	-0.02305193617939949
0	4614	-0.028812706470489502
0	4636	0.0038995107170194387
0	4664	0.005048501305282116
0	4726	0.011365302838385105
0	4860	0.024571826681494713
0	4866	0.0010998679790645838
0	4992	0.02311559021472931
0	5066	0.013584130443632603
0	5102	0.0066157011315226555
0	5172	0.012878063134849072
0	5204	0.005892028100788593
0	5296	0.01695852540433407
0	5308	0.002213831525295973
0	5342	0.006278468295931816
0	5454	0.02070138230919838
0	5452	-0.00036989545333199203
0	5462	0.0018516232958063483
0	5520	0.010755612514913082
0	5486	-0.006316649727523327
0	5556	0.013042991980910301
0	5522	-0.006355931982398033
0	5544	0.0041317143477499485
0	5566	0.004153189714998007
0	5516	-0.009486946277320385
0	5514	-0.0003813736839219928
0	5532	0.003445547539740801
0	5526	-0.001150689204223454
0	5532	0.0011511306511238217
0	5534	0.00038285329355858266
0	5512	-0.004194684326648712
0	5532	0.0037956424057483673
0	5492	-0.007547454908490181
0	5568	0.01426337193697691
0	5522	-0.008584544993937016
0	5526	0.0007428040844388306
0	5580	0.00998668372631073
0	5540	-0.00736512616276741
0	5588	0.00880852434784174
0	5586	-0.00036585365887731314
0	5550	-0.006565988529473543
0	5560	0.0018197037279605865
0	5532	-0.005084191914647818
0	5572	0.007252771407365799
0	5684	0.020275408402085304
0	5688	0.0007226303569041193
0	5686	-0.00036080676363781095
0	5630	-0.010088394396007061
0	5634	0.000719873292837292
0	5530	-0.018703913316130638
0	5462	-0.012226258404552937
0	5508	0.008275366388261318
0	5456	-0.009355545975267887
0	5468	0.0021601123735308647
0	5502	0.006123919505625963
0	5538	0.006484695244580507
0	5626	0.015849191695451736
0	6000	0.06732107698917389
0	7444	0.2591870129108429
0	7380	-0.011357586830854416
1	4748	-0.4620353877544403
0	4950	0.035619400441646576
0	5046	0.016986140981316566
0	5182	0.024127164855599403
0	5270	0.015647413209080696
0	5284	0.002493084641173482
0	5360	0.013553356751799583
0	5382	0.003928477875888348
0	5452	0.01251146849244833
0	5494	0.007512968499213457
0	5486	-0.001431827200576663
0	5558	0.012891366146504879
0	5654	0.017188692465424538
0	5722	0.012166465632617474
0	5830	0.019305938854813576
0	5950	0.02143239788711071
0	6134	0.032811831682920456
0	6254	0.021342186257243156
0	6336	0.014530075713992119
0	6394	0.010234932415187359
0	6288	-0.01861063949763775
0	6174	-0.019918926060199738
0	5908	-0.04629790782928467
0	5504	-0.07013320177793503
0	5266	-0.041307494044303894
0	4978	-0.050053879618644714
0	4776	-0.03522150218486786
0	4698	-0.013667905703186989
0	4652	-0.008122329600155354
0	4672	0.0035904492251574993
0	4674	0.0003649590362329036
0	4774	0.0182561706751585
0	4830	0.010234416462481022
0	4928	0.017933828756213188
0	4992	0.01173006184399128
0	5026	0.006242197472602129
0	5116	0.016549592837691307
0	5152	0.0066297524608671665
0	5218	0.012171732261776924
0	5312	0.017360469326376915
0	5308	-0.0007395720458589494
0	5410	0.01887979917228222
0	5458	0.008892731741070747
0	5466	0.0014839180512353778
0	5526	0.011147028766572475
0	5500	-0.004839490167796612
0	5516	0.002986486069858074
0	5546	0.005621275864541531
0	5542	-0.0007528325659222901
0	5530	-0.002269804012030363
0	5510	-0.0038037276826798916
0	5498	-0.002293548546731472
0	5516	0.0034552039578557014
0	5488	-0.005388276651501656
0	5494	0.0011547493049874902
0	5544	0.009608855471014977
0	5486	-0.011106004938483238
0	5544	0.011055901646614075
0	5526	-0.003412796650081873
0	5542	0.0030169326346367598
0	5560	0.003375590778887272
0	5546	-0.0026109986938536167
0	5570	0.004454618785530329
0	5550	-0.00369526376016438
0	5552	0.00036811621976085007
0	5524	-0.0051359813660383224
0	5584	0.010972264222800732
0	5676	0.016776280477643013
0	5706	0.00545315770432353
0	5634	-0.013048994354903698
0	5582	-0.00940597616136074
0	5584	0.000361171638360247
0	5472	-0.0202044490724802
0	5470	-0.0003607633989304304
0	5442	-0.0050505660474300385
0	5490	0.00866248831152916
0	5502	0.0021657522302120924
0	5508	0.0010829672683030367
0	5526	0.0032496447674930096
0	5554	0.0050554899498820305
0	6142	0.10614995658397675
0	6566	0.0762535110116005
0	7664	0.196211576461792
1	6210	-0.2565459907054901
0	4722	-0.2614348530769348
0	5014	0.05153608322143555
0	5118	0.018412727862596512
0	5272	0.027324343100190163
0	5262	-0.0017771670827642083
0	5402	0.024919308722019196
0	5418	0.002850288525223732
0	5450	0.00570538779720664
0	5470	0.0035679033026099205
0	5490	0.003570026019588113
0	5568	0.013928073458373547
0	5580	0.00214257650077343
0	5596	0.0028558168560266495
0	5756	0.028556130826473236
0	5872	0.020693346858024597
0	5954	0.014613629318773746
0	6126	0.03059482015669346
0	6236	0.019503546878695488
0	6362	0.022254668176174164
0	6316	-0.008082370273768902
0	6294	-0.0038464227691292763
0	6150	-0.02505219168961048
0	5898	-0.043674178421497345
0	5636	-0.04530363529920578
0	5248	-0.06704141944646835
0	4948	-0.05191928148269653
0	4784	-0.028482111170887947
0	4636	-0.025907037779688835
0	4656	0.0035408257972449064
0	4680	0.004325779154896736
0	4718	0.006912693846970797
0	4848	0.023649264127016068
0	4870	0.004006215836852789
0	4940	0.01276626717299223
0	5082	0.025949660688638687
0	5100	0.0032930041197687387
0	5222	0.022360429167747498
0	5262	0.007340078242123127
0	5318	0.010287939570844173
0	5418	0.01838843710720539
0	5426	0.0014717245940119028
0	5508	0.015098322182893753
0	5528	0.003684146096929908
0	5534	0.0011057055089622736
0	5564	0.005536076612770557
0	5502	-0.011462942697107792
0	5506	0.0007416105363518
0	5532	0.0048390100710093975
0	5472	-0.011215931735932827
0	5528	0.010526579804718494
0	5460	-0.012845700606703758
0	5500	0.007596186827868223
0	5494	-0.0011441357200965285
0	5502	0.0015294417971745133
0	5462	-0.007653744425624609
0	5522	0.011464967392385006
0	5488	-0.006473149172961712
0	5474	-0.002653558971360326
0	5532	0.01093541830778122
0	5604	0.01350067462772131
0	5678	0.01379601750522852
0	5612	-0.012231584638357162
0	5622	0.001844564569182694
0	5578	-0.008078730665147305
0	5498	-0.014631470665335655
0	5464	-0.00620264420285821
0	5474	0.0018202780047431588
0	5462	-0.0021809986792504787
0	5488	0.0047197784297168255
0	5544	0.010155229829251766
0	5544	0.0
0	6046	0.09090031683444977
0	6574	0.09529882669448853
0	7496	0.16537126898765564
0	6874	-0.11026934534311295
1	4612	-0.39793118834495544
0	4758	0.0258190780878067
0	5096	0.060037657618522644
0	5134	0.006767265498638153
0	5264	0.02319771610200405
0	5304	0.00714898481965065
0	5330	0.004651162773370743
0	5396	0.011818778701126575
0	5416	0.0035835441667586565
0	5460	0.007887848652899265
0	5490	0.005378143396228552
0	5514	0.004303337074816227
0	5618	0.018644899129867554
0	5660	0.007523196283727884
0	5742	0.014676928520202637
0	5906	0.029329707846045494
0	5964	0.010358622297644615
0	6166	0.036001142114400864
0	6310	0.02558150514960289
0	6362	0.009197896346449852
0	6338	-0.0042236666195094585
0	6202	-0.023812025785446167
0	5922	-0.04881734400987625
0	5698	-0.03894974663853645
0	5290	-0.070857934653759
0	5036	-0.044177498668432236
0	4850	-0.032446008175611496
0	4684	-0.02915998175740242
0	4628	-0.009947185404598713
0	4746	0.0213222187012434
0	4782	0.0065895444713532925
0	4848	0.012068313546478748
0	4998	0.02741294912993908
0	5004	0.0010971729643642902
0	5086	0.015006588771939278
0	5204	0.021618319675326347
0	5230	0.004766269586980343
0	5344	0.020911037921905518
0	5366	0.004036746919155121
0	5448	0.015050658956170082
0	5528	0.01468464732170105
0	5568	0.007340617012232542
0	5562	-0.0011007289867848158
0	5568	0.0011011059395968914
0	5502	-0.012118986807763577
0	5572	0.012872379273176193
0	5550	-0.004053904674947262
0	5498	-0.009606383740901947
0	5498	0.0
0	5502	0.0007457492174580693
0	5480	-0.0041236598044633865
0	5494	0.0026382904034107924
0	5502	0.0015143293421715498
0	5470	-0.006073412485420704
0	5514	0.00836300477385521
0	5512	-0.0003795978846028447
0	5496	-0.0030276651959866285
0	5530	0.006407679058611393
0	5512	-0.003374367253854871
0	5544	0.005965919699519873
0	5644	0.018551498651504517
0	5644	0.0
0	5676	0.00587623193860054
0	5602	-0.013532624579966068
0	5590	-0.002186509082093835
0	5554	-0.006539509631693363
0	5446	-0.019577039405703545
0	5506	0.010861956514418125
0	5476	-0.005425674375146627
0	5466	-0.0018073596293106675
0	5512	0.00831295270472765
0	5510	-0.0003614675661083311
0	5572	0.01120941061526537
0	6168	0.10774849355220795
0	6878	0.12789566814899445
0	7786	0.16222204267978668
1	4778	-0.5304116606712341
0	4804	0.0046055736020207405
0	5064	0.04624523967504501
0	5192	0.02282562106847763
0	5230	0.0067888665944337845
0	5322	0.016460707411170006
0	5372	0.008955223485827446
0	5388	0.002867897506803274
0	5476	0.015781167894601822
0	5488	0.0021524664480239153
0	5544	0.010046284645795822
0	5600	0.010043402202427387
0	5612	0.0021512573584914207
0	5716	0.018633095547556877
0	5732	0.0028636883944272995
0	5846	0.020393073558807373
0	6024	0.03180350735783577
0	6132	0.019256599247455597
0	6352	0.03910323232412338
0	6408	0.00990881584584713
0	6348	-0.01056338008493185
0	6292	-0.009807240217924118
0	6026	-0.04637162387371063
0	5830	-0.03405970707535744
0	5488	-0.059305671602487564
0	5232	-0.0443987101316452
0	4942	-0.05037637799978256
0	4792	-0.026152148842811584
0	4690	-0.017926817759871483
0	4688	-0.0003560704062692821
0	4708	0.0036273940932005644
0	4762	0.009798110462725163
0	4802	0.007259703706949949
0	4920	0.02145012468099594
0	4932	0.002184969838708639
0	5078	0.026631968095898628
0	5126	0.008768725208938122
0	5156	0.005488675087690353
0	5262	0.019420795142650604
0	5340	0.014309477061033249
0	5388	0.008813808672130108
0	5464	0.013968534767627716
0	5500	0.006622191984206438
0	5532	0.005890437867492437
0	5544	0.002211411017924547
0	5552	0.001475978409871459
0	5570	0.003326966892927885
0	5560	-0.0018534993287175894
0	5534	-0.0048361895605921745
0	5542	0.0014956439845263958
0	5476	-0.01240601483732462
0	5514	0.007182097993791103
0	5476	-0.007217473816126585
0	5454	-0.004193138796836138
0	5490	0.00687792943790555
0	5480	-0.001910511520691216
0	5518	0.007248496171087027
0	5506	-0.002280646236613393
0	5484	-0.004162357188761234
