0	5226	-0.003727773204445839
0	5284	0.010819952934980392
0	5532	0.04628419876098633
0	6174	0.11966449022293091
0	5782	-0.07269759476184845
0	5142	-0.11835633218288422
1	4306	-0.15481099486351013
0	4876	0.10620591044425964
0	5382	0.09455351531505585
0	5462	0.014947311021387577
0	5482	0.003733618650585413
0	5482	0.0
0	5524	0.007828226312994957
0	5490	-0.00633107777684927
0	5498	0.001488261390477419
0	5522	0.004460192751139402
0	5464	-0.010769326239824295
0	5514	0.009277012199163437
0	5486	-0.0051908246241509914
0	5438	-0.00889525841921568
0	5498	0.011122645810246468
0	5476	-0.00407790020108223
0	5536	0.01112292055040598
0	5528	-0.0014830561121925712
0	5518	-0.0018537743017077446
0	5540	0.004077346064150333
0	5488	-0.009624045342206955
0	5558	0.012937089428305626
0	5448	-0.020290710031986237
0	5448	0.0
0	5408	-0.007357269059866667
0	5306	-0.018740125000476837
0	5350	0.008082886226475239
0	5258	-0.016919437795877457
0	5248	-0.0018494543619453907
0	5226	-0.0040822383016347885
0	5160	-0.012240355834364891
0	5182	0.004058691207319498
0	5110	-0.013258040882647038
0	5182	0.013280211947858334
0	5212	0.005542964208871126
0	5182	-0.005552196875214577
0	5290	0.020024970173835754
0	5248	-0.00779876671731472
0	5316	0.01264551654458046
0	5284	-0.00595755223184824
0	5332	0.008949547074735165
0	5354	0.004105243366211653
0	5344	-0.0018678787164390087
0	5406	0.01159109640866518
0	5318	-0.016455160453915596
0	5382	0.011980830691754818
0	5356	-0.004870069213211536
0	5332	-0.004500506445765495
0	5344	0.0022530134301632643
0	5286	-0.01090143620967865
0	5358	0.013554387725889683
0	5338	-0.0037681814283132553
0	5282	-0.010565506294369698
0	5370	0.016620289534330368
0	5320	-0.009447985328733921
0	5352	0.006050064228475094
0	5336	-0.00302415550686419
0	5318	-0.0034024750348180532
0	5376	0.010959387756884098
0	5340	-0.006796898785978556
0	5442	0.01924407295882702
0	5450	0.0015066670021042228
0	5442	-0.0015041363658383489
0	5490	0.009006079286336899
0	5466	-0.004494382068514824
0	5514	0.008974534459412098
0	5390	-0.02313634380698204
0	5326	-0.011933916248381138
0	5266	-0.011182624846696854
0	5130	-0.025355160236358643
0	5214	0.015675541013479233
0	5180	-0.006349522620439529
0	5230	0.009347658604383469
0	5256	0.004864237736910582
0	5562	0.05730193853378296
0	6248	0.1282658576965332
0	5534	-0.13278450071811676
0	4732	-0.14898569881916046
0	4182	-0.10255326330661774
0	4866	0.12846678495407104
0	5298	0.08135082572698593
0	5500	0.038053374737501144
0	5510	0.0018819160759449005
0	5486	-0.004510147497057915
0	5480	-0.0011267182417213917
0	5526	0.008629530668258667
0	5478	-0.008994939737021923
0	5508	0.005616855341941118
0	5482	-0.00486217625439167
0	5484	0.00037376658292487264
0	5494	0.0018671578727662563
0	5468	-0.004853039979934692
0	5486	0.003359420457854867
0	5476	-0.0018658341141417623
0	5486	0.0018659965135157108
0	5530	0.00820936355739832
0	5510	-0.0037311576306819916
0	5518	0.001491350238211453
0	5530	0.0022343595046550035
0	5450	-0.01487136259675026
0	5484	0.006307821720838547
0	5394	-0.016669342294335365
0	5368	-0.004809233825653791
0	5346	-0.004065892193466425
0	5248	-0.018101664260029793
0	5248	0.0
0	5262	0.002607043832540512
0	5220	-0.0078343590721488
0	5250	0.005579042714089155
0	5182	-0.012562659569084644
0	5234	0.009588081389665604
0	5182	-0.009591854177415371
0	5254	0.013307048007845879
0	5252	-0.0003702241228893399
0	5276	0.004449113272130489
0	5326	0.00928068533539772
0	5344	0.003345186123624444
0	5346	0.0003719961387105286
0	5380	0.006330292206257582
0	5350	-0.005589089822024107
0	5390	0.007458326872438192
0	5382	-0.0014926302246749401
0	5378	-0.0007467144750989974
0	5386	0.0014944331487640738
0	5282	-0.019438525661826134
0	5354	0.013474566861987114
0	5336	-0.003372344421222806
0	5340	0.0007502250373363495
0	5356	0.0030042435973882675
0	5284	-0.013533834367990494
0	5348	0.01204260066151619
0	5258	-0.0169493667781353
0	5314	0.010555283166468143
0	5294	-0.0037710233591496944
0	5376	0.015466250479221344
0	5424	0.00904613547027111
0	5378	-0.008659638464450836
0	5480	0.019187839701771736
0	5482	0.00037561976932920516
0	5510	0.005251050461083651
0	5468	-0.00786045752465725
0	5316	-0.02840590476989746
0	5268	-0.008962804451584816
0	5158	-0.0205379705876112
0	5182	0.004483635071665049
0	5216	0.0063555361703038216
0	5218	0.0003741114924196154
0	5274	0.010483358055353165
0	5668	0.07379106432199478
0	6134	0.08711908757686615
0	5496	-0.1186947301030159
1	4576	-0.17104610800743103
0	4880	0.05680331960320473
0	5174	0.05510571226477623
0	5480	0.057430993765592575
0	5436	-0.008247834630310535
0	5454	0.0033723863307386637
0	5444	-0.0018721683882176876
0	5470	0.004864480346441269
0	5482	0.002243549795821309
0	5430	-0.009710067883133888
0	5502	0.013437850400805473
0	5426	-0.014162898063659668
0	5484	0.010801012627780437
0	5440	-0.008184218779206276
0	5460	0.0037186238914728165
0	5508	0.008922707289457321
0	5478	-0.005572203546762466
0	5508	0.005572272464632988
0	5518	0.001857125200331211
0	5530	0.0022284400183707476
0	5542	0.002227584831416607
0	5500	-0.007785659749060869
0	5530	0.005553224589675665
0	5446	-0.015513421036303043
0	5446	0.0
0	5362	-0.015466385520994663
0	5258	-0.019131949171423912
0	5270	0.002207749290391803
0	5206	-0.01180347241461277
0	5240	0.006306573282927275
0	5206	-0.0063165719620883465
0	5142	-0.011843809857964516
0	5182	0.007390436716377735
0	5172	-0.001847518258728087
0	5202	0.005553087685257196
0	5222	0.0037074110005050898
0	5224	0.00037127334508113563
0	5292	0.01264050230383873
0	5278	-0.0026053297333419323
0	5316	0.007080569863319397
0	5310	-0.0011187768541276455
0	5346	0.006720680743455887
0	5402	0.010459600016474724
0	5332	-0.01308117713779211
0	5404	0.013463983312249184
0	5358	-0.008604993112385273
0	5352	-0.0011234412668272853
0	5364	0.0022486508823931217
0	5324	-0.007502250373363495
0	5340	0.0030045444145798683
0	5318	-0.00413616793230176
0	5308	-0.0018827191088348627
0	5322	0.0026389865670353174
0	5292	-0.0056623718701303005
0	5338	0.008690723218023777
0	5292	-0.008696638979017735
0	5414	0.023075176402926445
0	5434	0.003779099090024829
0	5392	-0.007927918806672096
0	5500	0.02036224864423275
0	5456	-0.008282196708023548
0	5510	0.01014859601855278
0	5436	-0.013875346630811691
0	5348	-0.01647426001727581
0	5300	-0.008976100943982601
0	5172	-0.023921657353639603
0	5246	0.013834016397595406
0	5182	-0.01196291483938694
0	5234	0.009726534597575665
0	5246	0.0022452007979154587
0	5294	0.008984725922346115
0	5876	0.108950674533844
0	5908	0.005970669444650412
0	5478	-0.07997916638851166
1	4652	-0.15349546074867249
0	4794	0.026511332020163536
0	5180	0.07231985777616501
0	5530	0.06564551591873169
0	5420	-0.020610056817531586
0	5474	0.010111602023243904
0	5412	-0.011599915102124214
0	5472	0.011219147592782974
0	5474	0.0003735896898433566
0	5446	-0.005225310567766428
0	5476	0.005593189038336277
0	5454	-0.004098156932741404
0	5478	0.0044662244617938995
0	5466	-0.002232226077467203
0	5436	-0.005579457618296146
0	5496	0.01115587167441845
0	5450	-0.008553046733140945
0	5538	0.016362959519028664
0	5478	-0.011154628358781338
0	5528	0.009293104521930218
0	5530	0.0003713101032190025
0	5490	-0.007415647152811289
0	5536	0.008511267602443695
0	5492	-0.008126677945256233
0	5426	-0.012166795320808887
0	5460	0.006260357331484556
0	5334	-0.023169714957475662
0	5302	-0.005882929544895887
0	5210	-0.01697312481701374
0	5226	0.0029645732138305902
0	5220	-0.0011134480591863394
0	5182	-0.007027146872133017
0	5210	0.005165543407201767
0	5182	-0.005164590664207935
0	5182	0.0
0	5258	0.014068863354623318
0	5230	-0.005190183408558369
0	5274	0.008165184408426285
0	5260	-0.002601199084892869
0	5342	0.015255814418196678
0	5364	0.0040956647135317326
0	5350	-0.0026081448886543512
0	5398	0.008947989903390408
0	5382	-0.0029841468203812838
0	5420	0.007091051433235407
0	5392	-0.005225505214184523
0	5364	-0.005228888243436813
0	5400	0.006726457271724939
0	5326	-0.013838501647114754
0	5364	0.007112996652722359
0	5376	0.0022485102526843548
0	5322	-0.010128038004040718
0	5368	0.008636659942567348
0	5326	-0.007893946021795273
0	5378	0.009783631190657616
0	5340	-0.007151729892939329
0	5336	-0.000753380823880434
0	5358	0.004143542144447565
0	5334	-0.004518639296293259
0	5366	0.006020167376846075
0	5416	0.009398261085152626
0	5434	0.0033792241010814905
0	5454	0.0037487815134227276
0	5478	0.004491690080612898
0	5530	0.009714057669043541
0	5502	-0.005219336599111557
0	5360	-0.026429424062371254
0	5320	-0.007438907865434885
0	5230	-0.016732772812247276
0	5214	-0.0029752682894468307
0	5202	-0.002233223058283329
0	5238	0.006706408224999905
0	5248	0.0018641877686604857
0	5204	-0.008210078813135624
0	5568	0.06799501925706863
0	6104	0.10003235191106796
0	5408	-0.1293199509382248
0	4840	-0.1055082231760025
0	4292	-0.10214733332395554
0	4646	0.06641235202550888
0	5054	0.07688828557729721
0	5520	0.0879964753985405
0	5446	-0.01395629532635212
0	5434	-0.002262073801830411
0	5476	0.007911888882517815
0	5454	-0.004141774028539658
0	5522	0.012792696245014668
0	5490	-0.006013078149408102
0	5496	0.0011265208013355732
0	5512	0.0030010128393769264
0	5460	-0.00974439736455679
0	5516	0.010491082444787025
0	5478	-0.0071153054013848305
0	5510	0.005990938749164343
0	5484	-0.004866665694862604
0	5502	0.0033701977226883173
0	5528	0.004868063144385815
0	5490	-0.007107409182935953
0	5560	0.01307873334735632
0	5538	-0.00410202844068408
0	5548	0.0018608112586662173
0	5538	-0.0018568263622000813
0	5470	-0.012603017501533031
0	5486	0.002961354563012719
0	5360	-0.02328016236424446
0	5378	0.003330003470182419
0	5274	-0.01932654343545437
0	5216	-0.010787218809127808
0	5212	-0.0007422160124406219
0	5130	-0.015129338018596172
0	5182	0.009565739892423153
0	5152	-0.005514367949217558
0	5208	0.010316748172044754
0	5222	0.002582962391898036
0	5228	0.001108428929001093
0	5262	0.006290704943239689
0	5238	-0.0044457619078457355
0	5310	0.013360715471208096
0	5282	-0.005201625172048807
0	5284	0.00037203766987659037
0	5332	0.008941544219851494
0	5296	-0.006711493246257305
0	5354	0.010827763937413692
0	5346	-0.0014946379233151674
0	5374	0.0052365814335644245
0	5374	0.0
0	5348	-0.004869764670729637
0	5386	0.007125355768948793
0	5326	-0.011257880367338657
0	5360	0.006388816051185131
0	5330	-0.005643482320010662
0	5330	0.0
0	5354	0.004526878707110882
0	5304	-0.009437880478799343
0	5348	0.008314855396747589
0	5328	-0.0037797654513269663
0	5356	0.005293339490890503
0	5328	-0.005290605593472719
0	5318	-0.0018881700234487653
0	5380	0.011698849499225616
0	5288	-0.017332328483462334
0	5338	0.009413477964699268
0	5346	0.0015044003957882524
0	5380	0.006388175301253796
0	5452	0.013514528051018715
0	5418	-0.006372928619384766
0	5480	0.011609907262027264
0	5426	-0.010096603073179722
0	5538	0.0209259744733572
0	5480	-0.01081941556185484
0	5342	-0.025711411610245705
0	5358	0.0029808480758219957
0	5202	-0.02905208431184292
0	5248	0.008574730716645718
0	5182	-0.012310369871556759
0	5246	0.011951596476137638
0	5258	0.0022427113726735115
0	5298	0.007479898165911436
0	5506	0.03891681507229805
0	6130	0.1166195273399353
0	5474	-0.12201473116874695
0	4702	-0.1434624195098877
0	4206	-0.09253270924091339
0	4722	0.0969560295343399
0	5134	0.07769773155450821
0	5536	0.07591398805379868
0	5452	-0.015841882675886154
0	5504	0.009800964966416359
0	5516	0.002259262837469578
0	5484	-0.006017223931849003
0	5518	0.0063891359604895115
0	5490	-0.005254071671515703
0	5488	-0.00037493440322577953
0	5490	0.0003746019792743027
0	5464	-0.004866483621299267
0	5462	-0.0003743168490473181
0	5436	-0.004864783957600594
0	5494	0.010855188593268394
0	5458	-0.006734846159815788
0	5496	0.007112553343176842
0	5478	-0.0033687676768749952
0	5494	0.0029919217340648174
0	5560	0.012331224046647549
0	5532	-0.005219790153205395
0	5584	0.009676819667220116
0	5470	-0.021161794662475586
0	5508	0.007044168189167976
0	5430	-0.014436780475080013
0	5386	-0.00813719816505909
0	5374	-0.002220878843218088
0	5272	-0.01896592229604721
0	5304	0.00595755223184824
0	5206	-0.018177097663283348
0	5182	-0.004424180369824171
0	5182	0.0
0	5136	-0.008453292772173882
0	5216	0.014737487770617008
0	5166	-0.009224297478795052
0	5240	0.013680395670235157
0	5220	-0.003703703638166189
0	5248	0.005193648859858513
0	5306	0.010776261799037457
0	5280	-0.00483624916523695
0	5302	0.004097495693713427
0	5308	0.0011188045609742403
0	5310	0.00037329684710130095
0	5324	0.002615551231428981
0	5324	0.0
0	5378	0.010106302797794342
0	5310	-0.012732811272144318
0	5362	0.009748172014951706
0	5326	-0.006753630004823208
0	5324	-0.0003755962534341961
0	5358	0.006394583266228437
0	5320	-0.007154691498726606
0	5318	-0.0003771877090912312
0	5326	0.0015101938042789698
0	5294	-0.006047701463103294
0	5364	0.013240690343081951
0	5294	-0.013242527842521667
0	5344	0.009463721886277199
0	5330	-0.002648639027029276
0	5336	0.0011349449632689357
0	5374	0.007182097993791103
0	5302	-0.013591744005680084
0	5348	0.008677061647176743
0	5316	-0.0060281818732619286
0	5374	0.010919222608208656
0	5334	-0.00752068217843771
0	5366	0.0060130031779408455
0	5422	0.010513141751289368
0	5442	0.003750609466806054
0	5512	0.01311598252505064
0	5430	-0.01534220576286316
0	5524	0.01757337898015976
0	5522	-0.00037339903065003455
0	5494	-0.005220698658376932
0	5412	-0.01527305319905281
0	5326	-0.016009332612156868
0	5240	-0.016014499589800835
0	5182	-0.01080517191439867
0	5242	0.011190271936357021
0	5248	0.00111961190123111
0	5222	-0.004853945691138506
0	5286	0.011958296410739422
0	5644	0.06690588593482971
0	6242	0.11153248697519302
0	5524	-0.13315528631210327
0	4958	-0.10481740534305573
0	4290	-0.12401757389307022
0	4490	0.03736315667629242
0	5158	0.12546014785766602
0	5462	0.057157184928655624
0	5480	0.0033816364593803883
0	5488	0.0015019525308161974
0	5460	-0.005250721704214811
0	5516	0.010494097135961056
0	5498	-0.0033688938710838556
0	5482	-0.0029922574758529663
0	5542	0.011210622265934944
0	5464	-0.014557852409780025
0	5514	0.009329518303275108
0	5480	-0.006341232918202877
0	5500	0.003730879398062825
0	5534	0.006339735351502895
0	5512	-0.00410192646086216
0	5562	0.009323139674961567
0	5548	-0.0026093763299286366
0	5548	0.0
0	5592	0.008182696998119354
0	5546	-0.008536012843251228
0	5596	0.009257430210709572
0	5520	-0.014040619134902954
0	5460	-0.011066163890063763
0	5428	-0.005893330555409193
0	5332	-0.0176645927131176
0	5344	0.0022123076487332582
0	5236	-0.020021257922053337
0	5208	-0.0051999506540596485
0	5208	0.0
0	5116	-0.01696290262043476
0	5218	0.01873461715877056
0	5152	-0.012117947451770306
0	5222	0.012876799330115318
0	5182	-0.00736983073875308
0	5182	0.0
0	5284	0.01886071264743805
0	5276	-0.001481389976106584
0	5302	0.004821124020963907
0	5354	0.00965298805385828
0	5332	-0.004088712856173515
0	5374	0.00781211256980896
0	5322	-0.009680542163550854
0	5368	0.008571960963308811
0	5364	-0.0007459996268153191
0	5362	-0.0003733944031409919
0	5378	0.002989946398884058
0	5320	-0.010850992053747177
0	5394	0.013864082284271717
0	5308	-0.016127822920680046
0	5322	0.0026301287580281496
0	5348	0.00489138625562191
0	5304	-0.008290623314678669
0	5356	0.009811320342123508
0	5308	-0.009062531404197216
0	5366	0.010958835482597351
0	5346	-0.0037780997809022665
0	5324	-0.0041558570228517056
0	5376	0.009817495942115784
0	5308	-0.012824703939259052
0	5366	0.010931845754384995
0	5340	-0.00489279767498374
0	5360	0.0037608123384416103
0	5370	0.001877957838587463
0	5330	-0.0075048781000077724
0	5436	0.01986953616142273
0	5400	-0.006737451534718275
0	5420	0.003740321844816208
0	5538	0.022048108279705048
0	5488	-0.009328706189990044
0	5562	0.013794989325106144
0	5420	-0.026433687657117844
0	5332	-0.016376763582229614
0	5248	-0.01563139818608761
0	5178	-0.013035867363214493
0	5240	0.011559399776160717
0	5208	-0.005970669444650412
0	5214	0.0011206853669136763
0	5272	0.010840445756912231
0	5578	0.0572362020611763
0	6230	0.12174930423498154
0	5706	-0.09729769825935364
0	5268	-0.08114917576313019
1	4294	-0.18049515783786774
0	4844	0.10259535163640976
0	5276	0.08081715553998947
0	5504	0.04267745092511177
0	5450	-0.010097862221300602
0	5478	0.005231819581240416
0	5436	-0.007842746563255787
0	5486	0.009329170919954777
0	5446	-0.00745777040719986
0	5476	0.005589645355939865
0	5492	0.0029789982363581657
0	5434	-0.010790697298943996
0	5472	0.0070652104914188385
0	5462	-0.001858851290307939
0	5466	0.0007432549609802663
0	5518	0.00965956225991249
0	5428	-0.016720544546842575
0	5538	0.020443815737962723
0	5498	-0.007435220759361982
0	5510	0.0022294886875897646
0	5522	0.002227033721283078
0	5480	-0.007781428284943104
0	5512	0.005917670670896769
0	5418	-0.01735405996441841
0	5448	0.0055313813500106335
0	5380	-0.012519792653620243
0	5290	-0.016559338197112083
0	5284	-0.0011059092357754707
0	5204	-0.014831660315394402
0	5242	0.0070669627748429775
0	5228	-0.0026040375232696533
0	5152	-0.014054814353585243
0	5206	0.00996739137917757
0	5166	-0.0073864334262907505
0	5222	0.010362566448748112
0	5218	-0.000741225725505501
0	5200	-0.0033408813178539276
0	5296	0.01784408837556839
0	5260	-0.006699419114738703
0	5320	0.011178596876561642
0	5326	0.0011189436772838235
0	5364	0.007093964144587517
0	5402	0.0070970552042126656
0	5352	-0.00934230163693428
0	5412	0.011218448169529438
0	5372	-0.007481483742594719
0	5342	-0.0056162248365581036
0	5362	0.0037461603060364723
0	5328	-0.006375478580594063
0	5380	0.009761103428900242
0	5350	-0.005635990295559168
0	5330	-0.0037613781169056892
0	5354	0.0045179021544754505
0	5318	-0.006783579010516405
0	5364	0.008673354052007198
0	5318	-0.008677936159074306
0	5322	0.0007548973662778735
0	5328	0.0011321182828396559
0	5306	-0.004149951506406069
0	5354	0.009048637002706528
0	5286	-0.01280988659709692
0	5438	0.028623437508940697
0	5440	0.0003759492828976363
0	5448	0.0015015954850241542
0	5478	0.00562106491997838
0	5454	-0.004489673767238855
0	5496	0.007845383137464523
0	5356	-0.026103168725967407
0	5330	-0.004845924209803343
0	5270	-0.011178041808307171
0	5212	-0.010808795690536499
0	5250	0.007086643483489752
0	5242	-0.0014929829631000757
0	5264	0.004109793808311224
0	5288	0.004485869314521551
0	5524	0.04414515569806099
0	6174	0.121471107006073
0	5630	-0.10113780200481415
0	5070	-0.10393981635570526
0	4276	-0.14760741591453552
0	4840	0.10557184368371964
0	5166	0.061216823756694794
0	5394	0.04285821691155434
0	5496	0.019168607890605927
0	5422	-0.013891148380935192
0	5458	0.00675540417432785
0	5460	0.00037497185985557735
0	5422	-0.007118326146155596
0	5476	0.010109582915902138
0	5466	-0.001870160922408104
0	5470	0.0007475424208678305
0	5422	-0.00896023865789175
0	5442	0.0037338044494390488
0	5490	0.008961020037531853
0	5452	-0.007092287298291922
0	5476	0.004480063449591398
0	5466	-0.001866437727585435
0	5462	-0.0007467144750989974
0	5540	0.014551333151757717
0	5484	-0.01043348666280508
0	5526	0.007814728654921055
0	5510	-0.0029712533578276634
0	5488	-0.004078908357769251
0	5458	-0.005553704686462879
0	5382	-0.014052561484277248
0	5410	0.00517426198348403
0	5264	-0.026999037712812424
0	5308	0.008182596415281296
0	5232	-0.014161842875182629
0	5206	-0.004839970730245113
0	5254	0.008884062990546227
0	5182	-0.013292144052684307
0	5206	0.004430278670042753
0	5240	0.006283496506512165
0	5224	-0.0029616099782288074
0	5260	0.00667177326977253
0	5214	-0.008535483852028847
0	5310	0.017840327695012093
0	5274	-0.006694768089801073
0	5324	0.009309946559369564
0	5366	0.007827254012227058
0	5312	-0.010070118121802807
0	5406	0.01754145883023739
0	5354	-0.00970595981925726
0	5418	0.011955912224948406
0	5364	-0.010089937597513199
0	5364	0.0
0	5354	-0.0018710007425397635
0	5322	-0.0059912377037107944
0	5350	0.0052494751289486885
0	5336	-0.002626937348395586
0	5296	-0.007514465134590864
0	5358	0.011663051322102547
0	5304	-0.010166428051888943
0	5350	0.008668668568134308
0	5326	-0.0045236931182444096
0	5354	0.0052804285660386086
0	5334	-0.0037696019280701876
0	5310	-0.00452278321608901
0	5350	0.007534280885010958
0	5346	-0.0007527475245296955
0	5450	0.01956014893949032
0	5430	-0.0037552572321146727
0	5412	-0.0033749998547136784
0	5480	0.012736308388411999
0	5468	-0.002243997296318412
0	5472	0.0007470305426977575
0	5356	-0.021629147231578827
0	5324	-0.005964956246316433
0	5246	-0.01453506387770176
0	5182	-0.01193198747932911
0	5218	0.006719426717609167
0	5208	-0.0018675995524972677
0	5228	0.0037398089189082384
0	5258	0.005614122841507196
0	5584	0.06106774881482124
0	6128	0.10176467150449753
0	5520	-0.11319771409034729
0	4934	-0.10898946225643158
0	4346	-0.10962513834238052
0	4776	0.08067138493061066
0	5292	0.09714587032794952
0	5448	0.029370417818427086
0	5440	-0.0015053250826895237
0	5446	0.0011280316393822432
0	5434	-0.002254706574603915
0	5456	0.0041308351792395115
0	5432	-0.004503489937633276
0	5454	0.004125670529901981
0	5442	-0.002248341916128993
0	5428	-0.0026215591933578253
0	5446	0.0033688517287373543
0	5420	-0.0048662410117685795
0	5466	0.008610039949417114
0	5462	-0.0007484469679184258
0	5464	0.0003742655098903924
0	5488	0.004491298459470272
0	5470	-0.003368137404322624
0	5512	0.007853402756154537
0	5534	0.004108872730284929
0	5530	-0.0007457307074218988
0	5528	-0.0003720607201103121
0	5444	-0.015596569515764713
0	5436	-0.0014832210727036
0	5408	-0.005184608977288008
0	5324	-0.01553944032639265
0	5304	-0.00370580842718482
0	5222	-0.015271535143256187
0	5250	0.005224335473030806
0	5182	-0.012662784196436405
0	5182	0.0
0	5230	0.008870053105056286
0	5182	-0.008873443119227886
0	5218	0.00666600838303566
0	5224	0.0011125258170068264
0	5224	0.0
0	5282	0.010783207602798939
0	5236	-0.008561431430280209
0	5312	0.014162194915115833
0	5304	-0.0014920734101906419
0	5354	0.009333465248346329
0	5382	0.005229148548096418
0	5376	-0.0011209785006940365
0	5408	0.005980190820991993
0	5378	-0.005608454812318087
0	5418	0.007481856737285852
0	5366	-0.009729203768074512
0	5354	-0.002246910473331809
0	5404	0.00936891045421362
0	5322	-0.015375384129583836
0	5390	0.01276723574846983
0	5328	-0.01165092270821333
0	5296	-0.0060209231451153755
0	5368	0.013559662736952305
0	5312	-0.0105509078130126
0	5378	0.012442500330507755
0	5338	-0.007538351230323315
0	5336	-0.0003768370661418885
0	5376	0.007531349081546068
0	5352	-0.00451523857191205
0	5362	0.0018793459748849273
0	5316	-0.008635254576802254
0	5370	0.010131585411727428
0	5350	-0.0037480322644114494
0	5432	0.015354271978139877
0	5466	0.0063581508584320545
0	5452	-0.0026141188573092222
0	5474	0.004103558603674173
0	5518	0.008194991387426853
0	5418	-0.0186011902987957
0	5388	-0.005576415453106165
0	5286	-0.018955819308757782
0	5240	-0.008553789928555489
0	5182	-0.010794311761856079
0	5182	0.0
0	5260	0.014554591849446297
0	5206	-0.01008616853505373
0	5302	0.017948845401406288
0	5550	0.04638288542628288
0	6110	0.10464030504226685
0	5562	-0.10189788043498993
0	5084	-0.08878707140684128
0	4444	-0.11905795335769653
0	4534	0.016831448301672935
0	5008	0.089108906686306
0	5444	0.0821215957403183
0	5488	0.008284068666398525
0	5460	-0.005266721826046705
0	5436	-0.004510825965553522
0	5478	0.007890979759395123
0	5434	-0.008260222151875496
0	5498	0.012009457685053349
0	5444	-0.010121457278728485
0	5500	0.010491476394236088
0	5440	-0.0112303476780653
0	5494	0.010106808505952358
0	5478	-0.002994086593389511
0	5494	0.002993601141497493
0	5502	0.0014966139569878578
0	5458	-0.008232197724282742
0	5542	0.01571209356188774
0	5500	-0.007848511449992657
0	5550	0.009331027045845985
0	5530	-0.0037252274341881275
0	5510	-0.0037171957083046436
0	5556	0.008532212115824223
0	5506	-0.009257202036678791
0	5450	-0.010348905809223652
0	5406	-0.00812387652695179
0	5364	-0.007761488202959299
0	5332	-0.0059408145025372505
0	5248	-0.015616866759955883
0	5240	-0.0014858104987069964
0	5156	-0.015524507500231266
0	5182	0.004786862060427666
0	5182	0.0
0	5182	0.0
0	5174	-0.001476450590416789
0	5208	0.006285974755883217
0	5206	-0.0003702835238073021
0	5286	0.014836244285106659
0	5262	-0.004454949405044317
0	5304	0.007807562127709389
0	5316	0.002232668921351433
0	5318	0.00037253659684211016
0	5360	0.00782919954508543
0	5336	-0.004477555863559246
0	5400	0.011950703337788582
0	5380	-0.00373678095638752
0	5334	-0.008601131848990917
0	5402	0.012724550440907478
0	5354	-0.00898988638073206
0	5404	0.009373008273541927
0	5358	-0.008631041273474693
0	5376	0.0033810012973845005
0	5376	0.0
0	5334	-0.007904543541371822
0	5344	0.0018840670818462968
0	5324	-0.003770644310861826
0	5348	0.004527105949819088
0	5334	-0.002641077619045973
0	5324	-0.001886460348032415
0	5354	0.005656677298247814
0	5306	-0.009044203907251358
0	5360	0.01016515213996172
0	5328	-0.006017073057591915
0	5362	0.006387295201420784
0	5368	0.0011259006569162011
0	5338	-0.005622680764645338
0	5386	0.00898898858577013
0	5334	-0.00972714088857174
0	5416	0.015334364026784897
0	5482	0.012330455705523491
0	5422	-0.01119709387421608
0	5514	0.01715756207704544
0	5458	-0.010431024245917797
0	5508	0.009307751432061195
0	5454	-0.010041654109954834
0	5332	-0.022679109126329422
0	5304	-0.005206590052694082
0	5182	-0.022690076380968094
0	5224	0.0078220060095191
0	5204	-0.003727773204445839
0	5172	-0.005971857346594334
0	5258	0.016067959368228912
0	5514	0.0478653758764267
0	6114	0.11208808422088623
0	5666	-0.08328789472579956
1	4808	-0.15919353067874908
0	4440	-0.06849739700555801
0	5056	0.11530829221010208
0	5452	0.07425557076931
0	5462	0.0018736415077000856
0	5474	0.002246854593977332
0	5446	-0.005237169098109007
0	5492	0.008599309250712395
0	5456	-0.006723023951053619
0	5516	0.011198487132787704
0	5512	-0.0007458790205419064
0	5494	-0.0033528292551636696
0	5512	0.0033505824394524097
0	5454	-0.010784410871565342
0	5518	0.011897237971425056
0	5462	-0.010407760739326477
0	5496	0.006317432504147291
0	5514	0.0033448957838118076
0	5494	-0.0037152620498090982
0	5558	0.011889870278537273
0	5532	-0.004827150609344244
0	5514	-0.00333774252794683
0	5592	0.014444801025092602
0	5552	-0.007388889789581299
0	5560	0.0014747993554919958
0	5436	-0.02280949056148529
0	5426	-0.0018365023424848914
0	5376	-0.009173077531158924
0	5264	-0.020565049722790718
0	5256	-0.001476614153943956
0	5154	-0.01887444220483303
0	5170	0.00295439176261425
0	5130	-0.007352941203862429
0	5132	0.00036748041748069227
0	5172	0.0073640416376292706
0	5156	-0.0029508681036531925
0	5230	0.013674497604370117
0	5182	-0.008881761692464352
0	5292	0.02039302885532379
0	5266	-0.004825060721486807
0	5294	0.005204267334192991
0	5294	0.0
0	5308	0.0026088901795446873
0	5354	0.008582943119108677
0	5396	0.00784147810190916
0	5326	-0.013079059310257435
0	5394	0.012716143392026424
0	5372	-0.004116663709282875
0	5338	-0.006367756985127926
0	5372	0.006373963784426451
0	5336	-0.006756756920367479
0	5392	0.010523414239287376
0	5316	-0.014292699284851551
0	5340	0.004521306604146957
0	5402	0.011695612221956253
0	5314	-0.016616731882095337
0	5392	0.01473978627473116
0	5326	-0.01247479859739542
0	5324	-0.0003781433042604476
0	5370	0.00869400892406702
0	5286	-0.015864621847867966
0	5372	0.01622886396944523
0	5354	-0.003392428858205676
0	5348	-0.0011292204726487398
0	5366	0.0033830769825726748
0	5290	-0.014266762882471085
0	5360	0.013129431754350662
0	5338	-0.004123041406273842
0	5336	-0.00037445701309479773
0	5372	0.006738376338034868
0	5362	-0.0018705340335145593
0	5482	0.022436896339058876
0	5442	-0.007470212411135435
0	5494	0.009703181684017181
0	5514	0.0037287462037056684
0	5518	0.0007452027639374137
0	5500	-0.0033494187518954277
0	5360	-0.02603391744196415
0	5328	-0.0059510525315999985
0	5182	-0.027153359726071358
0	5182	0.0
0	5182	0.0
0	5178	-0.0007464914815500379
0	5248	0.013074825517833233
0	5464	0.04036829620599747
0	6126	0.12367359548807144
0	5894	-0.043123744428157806
0	5234	-0.12229922413825989
1	4286	-0.17576605081558228
0	4906	0.11569467186927795
0	5386	0.08982932567596436
0	5476	0.016832498833537102
0	5478	0.0003738131490536034
0	5438	-0.00747049180790782
0	5454	0.002986523322761059
0	5450	-0.0007462222129106522
0	5452	0.0003727402654476464
0	5490	0.0070780194364488125
0	5434	-0.01042093150317669
0	5512	0.014506049454212189
0	5480	-0.005946039687842131
0	5524	0.008169833570718765
0	5544	0.0037125954404473305
0	5466	-0.014469989575445652
0	5554	0.01632794551551342
0	5512	-0.007790955249220133
0	5558	0.008533267304301262
0	5584	0.004821422044187784
0	5542	-0.007777681574225426
0	5600	0.010726438835263252
0	5520	-0.014757062308490276
0	5542	0.004049775656312704
0	5462	-0.01469399780035019
0	5372	-0.016502054408192635
0	5354	-0.0032979112584143877
0	5264	-0.01650064066052437
0	5244	-0.0036862280685454607
0	5182	-0.011473124846816063
0	5182	0.0
0	5170	-0.002209103899076581
0	5126	-0.008086946792900562
0	5182	0.01030889805406332
0	5152	-0.0055326055735349655
0	5208	0.010348268784582615
0	5260	0.009622739627957344
0	5230	-0.005558231845498085
0	5266	0.006678952369838953
0	5228	-0.007058124057948589
0	5316	0.01637168787419796
0	5298	-0.003351206425577402
0	5378	0.014914057217538357
0	5354	-0.00447705527767539
0	5376	0.0041083102114498615
0	5406	0.005608105566352606
0	5336	-0.013090474531054497
0	5376	0.007490449585020542
0	5354	-0.004123247694224119
0	5364	0.0018765951972454786
0	5360	-0.0007516724290326238
0	5324	-0.006772773806005716
0	5354	0.005653763189911842
0	5358	0.0007546221022494137
0	5332	-0.004910725634545088
0	5366	0.006426977925002575
0	5278	-0.016635160893201828
0	5342	0.012104094959795475
0	5324	-0.00340260355733335
0	5330	0.001133629702962935
0	5346	0.003020197618752718
0	5320	-0.004902761895209551
0	5380	0.01130340900272131
0	5288	-0.01730429194867611
0	5332	0.00827046949416399
0	5306	-0.004881590139120817
0	5304	-0.00037527678068727255
0	5358	0.010129684582352638
0	5322	-0.006747722625732422
0	5412	0.01686340570449829
0	5450	0.007111931685358286
0	5428	-0.004113995004445314
0	5536	0.02017962373793125
0	5488	-0.008959904313087463
0	5562	0.013801679015159607
0	5486	-0.014158324338495731
0	5408	-0.014523698017001152
0	5326	-0.01526168268173933
0	5180	-0.02718167006969452
0	5236	0.010437116026878357
0	5182	-0.010072371922433376
0	5250	0.012697780504822731
0	5264	0.00261545367538929
0	5294	0.005607686471194029
0	6022	0.13613414764404297
0	5854	-0.031281035393476486
0	5266	-0.10915301740169525
1	4314	-0.17673705518245697
0	4894	0.10836530476808548
0	5344	0.08430229127407074
0	5508	0.030720815062522888
0	5428	-0.014970621094107628
0	5482	0.010098366066813469
0	5524	0.007849293760955334
0	5474	-0.009330679662525654
0	5560	0.016034604981541634
0	5480	-0.014892402105033398
0	5476	-0.0007438078173436224
0	5538	0.011520595289766788
0	5470	-0.01261860877275467
0	5480	0.0018550122622400522
0	5494	0.002596535487100482
0	5466	-0.005190952681005001
0	5516	0.009273570962250233
0	5512	-0.0007417572196573019
0	5560	0.008903838694095612
0	5554	-0.001112470868974924
0	5502	-0.009632721543312073
0	5572	0.012953048571944237
0	5484	-0.0162445530295372
0	5472	-0.002211791230365634
0	5430	-0.007727501448243856
0	5322	-0.019848806783556938
0	5322	0.0
0	5238	-0.015429831109941006
0	5236	-0.0003691489982884377
0	5172	-0.011857854202389717
0	5140	-0.005932371132075787
0	5182	0.007746695540845394
0	5152	-0.005523573607206345
0	5182	0.005530089605599642
0	5174	-0.0014776504831388593
0	5204	0.005549868568778038
0	5248	0.008153785020112991
0	5268	0.0037125954404473305
0	5302	0.006319467443972826
0	5304	0.00037232853355817497
0	5336	0.00596377020701766
0	5356	0.0037306006997823715
0	5348	-0.0014939309330657125
0	5380	0.005980265326797962
0	5354	-0.004861994180828333
0	5398	0.008235177025198936
0	5332	-0.012358007952570915
0	5340	0.0014996626414358616
0	5336	-0.0007506380788981915
0	5346	0.0018792281625792384
0	5340	-0.0011290080146864057
0	5292	-0.009041250683367252
0	5316	0.004528586752712727
0	5324	0.0015111255925148726
0	5324	0.0
0	5366	0.007946117781102657
0	5296	-0.013239854946732521
0	5362	0.012485338374972343
0	5340	-0.004158528055995703
0	5278	-0.011711814440786839
0	5374	0.018122324720025063
0	5310	-0.012063787318766117
0	5334	0.004520284943282604
0	5368	0.006396427750587463
0	5320	-0.009019730612635612
0	5368	0.009011490270495415
0	5386	0.0033758438657969236
0	5472	0.016115128993988037
0	5418	-0.010105925612151623
0	5474	0.01047264039516449
0	5486	0.0022417616564780474
0	5520	0.0063457307405769825
0	5500	-0.003728977870196104
0	5374	-0.02347038872539997
0	5328	-0.008568873628973961
0	5208	-0.022357193753123283
0	5206	-0.00037306005833670497
0	5228	0.00410687830299139
0	5212	-0.002988903783261776
0	5266	0.010095344856381416
0	5278	0.0022445288486778736
0	5832	0.10366249084472656
0	6032	0.03729766234755516
0	5318	-0.13256263732910156
1	4374	-0.1752713918685913
0	4918	0.10160121321678162
0	5204	0.05356473848223686
0	5470	0.04984758421778679
0	5466	-0.0007490823627449572
0	5448	-0.0033682212233543396
0	5518	0.01308476459234953
0	5474	-0.008217336609959602
0	5522	0.008955223485827446
0	5490	-0.005963177420198917
0	5460	-0.005586245097219944
0	5484	0.004465116187930107
0	5440	-0.008180161938071251
0	5494	0.010035931132733822
0	5448	-0.008547961711883545
0	5456	0.0014863258693367243
0	5450	-0.0011148686753585935
0	5464	0.0026019401848316193
0	5510	0.008552199229598045
0	5470	-0.007436234038323164
0	5520	0.009289766661822796
0	5536	0.002969194669276476
0	5456	-0.014815911650657654
0	5492	0.006656887009739876
0	5376	-0.021415119990706444
0	5410	0.0062705171294510365
0	5358	-0.009581721387803555
0	5270	-0.01620725728571415
0	5296	0.004805086180567741
0	5202	-0.01745135895907879
0	5178	-0.004458867013454437
0	5182	0.0007394626154564321
0	5160	-0.004060438834130764
0	5222	0.011446153745055199
0	5166	-0.010354263707995415
0	5182	0.0029638411942869425
0	5250	0.012617047876119614
0	5224	-0.004832174628973007
0	5312	0.016380423679947853
0	5292	-0.0037276805378496647
0	5312	0.0037322717253118753
0	5396	0.01568998582661152
0	5354	-0.007849293760955334
0	5398	0.00822747778147459
0	5350	-0.008980803191661835
0	5370	0.003744289977476001
0	5396	0.004870190750807524
0	5342	-0.010118423029780388
0	5382	0.007500843610614538
0	5290	-0.01726575382053852
0	5364	0.013903327286243439
0	5318	-0.008651060983538628
0	5300	-0.003389830468222499
0	5348	0.009048409759998322
0	5268	-0.015094339847564697
0	5336	0.012838909402489662
0	5318	-0.0034001185558736324
0	5324	0.0011336583411321044
0	5330	0.0011332728900015354
0	5334	0.0007553535979241133
0	5332	-0.00037736326339654624
0	5386	0.010178947821259499
0	5410	0.004518185742199421
0	5400	-0.0018796285148710012
0	5456	0.010514194145798683
0	5438	-0.0033734398894011974
0	5518	0.014969125390052795
0	5460	-0.010834505781531334
0	5374	-0.016041385009884834
0	5320	-0.010068614967167377
0	5200	-0.022370807826519012
0	5258	0.010820087976753712
0	5206	-0.009709101170301437
0	5286	0.014950849115848541
0	5250	-0.006732579320669174
0	5290	0.007485310547053814
0	5752	0.08649849891662598
0	6114	0.06762562692165375
0	5606	-0.09444602578878403
1	4754	-0.15818201005458832
0	4770	0.002980440855026245
0	5152	0.07142145186662674
0	5478	0.061014410108327866
0	5480	0.00037390633951872587
0	5502	0.004109588917344809
0	5448	-0.010072496719658375
0	5474	0.004846346098929644
0	5472	-0.0003724348498508334
0	5508	0.006697674281895161
0	5496	-0.002230096375569701
0	5432	-0.01188192330300808
0	5512	0.014843218959867954
0	5438	-0.01371928583830595
0	5484	0.008526729419827461
0	5448	-0.006669630762189627
0	5480	0.005928853526711464
0	5480	0.0
0	5476	-0.0007410884136334062
0	5538	0.011485735885798931
0	5496	-0.007772787474095821
0	5534	0.007024894934147596
0	5526	-0.001475887605920434
0	5470	-0.0103142149746418
0	5470	0.0
0	5382	-0.016163595020771027
0	5378	-0.0007341155433095992
0	5306	-0.013206970877945423
0	5258	-0.00882872287184
0	5250	-0.0014792169677093625
0	5166	-0.015565932728350163
0	5250	0.015526419505476952
0	5168	-0.01511205080896616
0	5152	-0.002948403125628829
0	5224	0.013294435106217861
0	5162	-0.011466052383184433
0	5222	0.011119485832750797
0	5182	-0.007423353847116232
0	5276	0.01747645065188408
0	5286	0.001861457945778966
0	5304	0.0033552460372447968
0	5310	0.0011197511339560151
0	5288	-0.004108872730284929
0	5388	0.018702777102589607
0	5354	-0.006360926665365696
0	5348	-0.001123427296988666
0	5416	0.012740125879645348
0	5318	-0.018368111923336983
0	5368	0.009380980394780636
0	5326	-0.007885348983108997
0	5328	0.00037599168717861176
0	5334	0.00112916377838701
0	5290	-0.00829093623906374
0	5332	0.007925824262201786
0	5340	0.0015109925298020244
0	5330	-0.0018902876181527972
0	5334	0.0007563628605566919
0	5310	-0.00453943619504571
0	5352	0.007943813689053059
0	5302	-0.009451319463551044
0	5368	0.012471655383706093
0	5410	0.00792642217129469
0	5414	0.000754138280171901
0	5442	0.005270819645375013
0	5420	-0.00413383636623621
0	5532	0.02101917937397957
0	5486	-0.008612941950559616
0	5342	-0.026917899027466774
0	5358	0.0029878991190344095
0	5226	-0.02463759109377861
0	5248	0.004107798915356398
0	5254	0.0011206993367522955
0	5238	-0.0029895741026848555
0	5288	0.00934532843530178
0	5268	-0.0037404620088636875
0	5832	0.10553760081529617
0	6076	0.04552068933844566
0	5532	-0.10107390582561493
0	4766	-0.14213261008262634
0	4288	-0.08902519196271896
0	4998	0.1330917328596115
0	5364	0.06874961405992508
0	5436	0.013521973975002766
0	5446	0.0018763369880616665
0	5378	-0.012749999761581421
0	5440	0.011622239835560322
0	5410	-0.005619801580905914
0	5430	0.0037447575014084578
0	5458	0.005238736979663372
0	5398	-0.011218448169529438
0	5436	0.007100768852978945
0	5430	-0.0011206993367522955
0	5474	0.008217438124120235
0	5466	-0.0014935218496248126
0	5446	-0.0037332470528781414
0	5496	0.009331608191132545
0	5448	-0.008960350416600704
0	5470	0.004107798915356398
0	5482	0.0022388338111341
0	5484	0.0003728514420799911
0	5538	0.010050875134766102
0	5486	-0.00966123677790165
0	5512	0.004823687952011824
0	5400	-0.02074381336569786
0	5334	-0.012215587310492992
0	5352	0.003330167615786195
0	5226	-0.023380381986498833
0	5232	0.001119235996156931
0	5172	-0.011213276535272598
0	5152	-0.0037283289711922407
0	5182	0.005562629085034132
0	5160	-0.004074627533555031
0	5210	0.009272194467484951
0	5182	-0.005199693143367767
0	5204	0.004092160612344742
0	5236	0.005958661437034607
0	5220	-0.002983108162879944
0	5286	0.012319868430495262
0	5264	-0.004110305570065975
0	5318	0.01010113675147295
0	5370	0.00973187480121851
0	5334	-0.006740226410329342
0	5408	0.013863216154277325
0	5350	-0.010870244354009628
0	5416	0.012378559447824955
0	5398	-0.0033766040578484535
0	5362	-0.0067573487758636475
0	5396	0.006385376211255789
0	5316	-0.015031377784907818
0	5372	0.010532915592193604
0	5322	-0.009410997852683067
0	5346	0.0045234085991978645
0	5316	-0.0056592379696667194
0	5312	-0.0007554962649010122
0	5306	-0.001133872545324266
0	5328	0.004158266354352236
0	5354	0.004915057681500912
0	5310	-0.00831108633428812
0	5354	0.008307007141411304
0	5330	-0.004525911062955856
0	5310	-0.003767376998439431
0	5358	0.009034443646669388
0	5358	0.0
0	5464	0.01990784890949726
0	5382	-0.015373270958662033
0	5476	0.0176034364849329
0	5488	0.0022438853047788143
0	5498	0.001866786158643663
0	5472	-0.004847249481827021
0	5354	-0.021970657631754875
0	5296	-0.010796723887324333
0	5244	-0.00968426838517189
0	5182	-0.0115530826151371
0	5280	0.018286993727087975
0	5248	-0.00597386434674263
0	5286	0.007101387716829777
0	5306	0.003740181913599372
0	5836	0.0991494357585907
0	5992	0.029103754088282585
0	5318	-0.1252167522907257
0	4700	-0.11485138535499573
0	4318	-0.07126688212156296
0	4786	0.08787301927804947
0	5266	0.09042613208293915
0	5458	0.03618090599775314
0	5482	0.004518298897892237
0	5416	-0.01241332571953535
0	5464	0.009024365805089474
0	5472	0.0015026107430458069
0	5452	-0.0037537538446485996
0	5526	0.013878295198082924
0	5472	-0.010113748721778393
0	5474	0.0003743168490473181
0	5480	0.0011221385793760419
0	5464	-0.0029920709785073996
0	5500	0.006728720385581255
0	5426	-0.013829191215336323
0	5482	0.010469377972185612
0	5466	-0.0029915489722043276
0	5510	0.008227067068219185
0	5534	0.004483132157474756
0	5496	-0.007087789010256529
0	5574	0.01452586054801941
0	5538	-0.00668796943500638
0	5578	0.007419223431497812
0	5490	-0.016289057210087776
0	5470	-0.00369740417227149
0	5410	-0.011081014759838581
0	5284	-0.02333131618797779
0	5280	-0.0007439276669174433
0	5174	-0.019718728959560394
0	5174	0.0
0	5178	0.0007380165043286979
0	5104	-0.013620467856526375
0	5178	0.01363401859998703
0	5166	-0.0022147304844111204
0	5222	0.010355540551245213
0	5226	0.0007405670476146042
0	5216	-0.0018541408935561776
0	5290	0.013742386363446712
0	5318	0.005205041728913784
0	5306	-0.0022336107213050127
0	5354	0.008943655528128147
0	5328	-0.004848093260079622
0	5380	0.009705355390906334
0	5340	-0.007469561416655779
0	5358	0.0033646535594016314
0	5410	0.009724230505526066
0	5370	-0.007483535911887884
0	5404	0.0063648163340985775
0	5370	-0.006369028706103563
0	5404	0.006375557743012905
0	5344	-0.011257458478212357
0	5334	-0.001878945855423808
0	5366	0.006020318251103163
0	5300	-0.012433437630534172
0	5354	0.010184964165091515
0	5320	-0.006417435128241777
0	5344	0.004532520659267902
0	5390	0.008684051223099232
0	5344	-0.008678044192492962
0	5412	0.012814714573323727
0	5354	-0.010913880541920662
0	5402	0.009022217243909836
0	5362	-0.007504502777010202
0	5350	-0.002248763106763363
0	5388	0.00711290817707777
0	5404	0.0029918099753558636
0	5480	0.014195348136126995
0	5434	-0.008577821776270866
0	5500	0.012296303175389767
0	5576	0.01414339430630207
0	5454	-0.022665906697511673
0	5374	-0.01485369075089693
0	5282	-0.01707688346505165
0	5220	-0.011515316553413868
0	5180	-0.007434760220348835
0	5182	0.00037214840995147824
0	5232	0.009316885843873024
0	5182	-0.009324878454208374
0	5290	0.020169572904706
0	5806	0.0964137613773346
0	6060	0.04734095185995102
0	5482	-0.10725153982639313
0	4714	-0.14237689971923828
0	4364	-0.06514779478311539
0	4782	0.07825956493616104
0	5368	0.1101062223315239
0	5480	0.021037867292761803
0	5408	-0.013512837700545788
0	5444	0.006755657959729433
0	5432	-0.0022504781372845173
0	5444	0.0022501968778669834
0	5480	0.006746795028448105
0	5436	-0.008242066949605942
0	5480	0.008238260634243488
0	5466	-0.0026191396173089743
0	5466	0.0
0	5490	0.004486037418246269
0	5448	-0.00785007607191801
0	5514	0.01233475748449564
0	5478	-0.006727462634444237
0	5494	0.0029918099753558636
0	5544	0.00934707559645176
0	5518	-0.004855336155742407
0	5582	0.011934064328670502
0	5560	-0.004093124996870756
0	5612	0.0096519123762846
0	5522	-0.0166609063744545
0	5490	-0.0059132962487638
0	5428	-0.011435316875576973
0	5350	-0.014374171383678913
0	5332	-0.0033264339435845613
0	5218	-0.02116231992840767
0	5182	-0.006693772505968809
0	5154	-0.005191209260374308
0	5136	-0.003320992225781083
0	5134	-0.0003681975358631462
0	5130	-0.0007374540437012911
0	5182	0.009607568383216858
0	5156	-0.00481047946959734
0	5210	0.01000877283513546
0	5226	0.0029696354176849127
0	5208	-0.003345351666212082
0	5284	0.014148660935461521
0	5278	-0.001118054031394422
0	5326	0.008955669589340687
0	5348	0.00410825852304697
0	5310	-0.007101299241185188
0	5356	0.008605959825217724
0	5346	-0.0018719346262514591
0	5366	0.0037477980367839336
0	5390	0.004500506445765495
0	5338	-0.00975744053721428
0	5388	0.009394258260726929
0	5362	-0.0048889946192502975
0	5334	-0.005272341426461935
0	5354	0.003771307645365596
0	5298	-0.010576813481748104
0	5382	0.015887627378106117
0	5324	-0.010977502912282944
0	5344	0.0037878307048231363
0	5356	0.00227278470993042
0	5318	-0.007196061313152313
0	5406	0.01665404997766018
0	5370	-0.006803406402468681
0	5374	0.0007549069123342633
0	5366	-0.0015075566479936242
0	5314	-0.009784858673810959
0	5390	0.014284460805356503
0	5324	-0.012388782575726509
0	5340	0.0030001874547451735
0	5362	0.004121908452361822
0	5470	0.02021765150129795
0	5480	0.0018689492717385292
0	5424	-0.010453351773321629
0	5466	0.007832897827029228
0	5490	0.004472049884498119
0	5500	0.0018617120804265141
0	5410	-0.016735674813389778
0	5336	-0.013755840249359608
0	5272	-0.011897679418325424
0	5182	-0.016740862280130386
0	5236	0.010057489387691021
0	5224	-0.0022364137694239616
0	5236	0.002238694578409195
0	5288	0.009708616882562637
0	5496	0.03884559124708176
0	6202	0.1317344456911087
0	5774	-0.07941514998674393
0	5372	-0.07441045343875885
1	4430	-0.17431315779685974
0	4806	0.0699717104434967
0	5340	0.09971491992473602
0	5486	0.02725914865732193
0	5424	-0.011570042930543423
0	5478	0.010073749348521233
0	5428	-0.009321518242359161
0	5474	0.008572493679821491
0	5492	0.003351123072206974
0	5446	-0.008558563888072968
0	5486	0.007436603307723999
0	5464	-0.0040864343754947186
0	5500	0.00668267160654068
0	5460	-0.007423812989145517
0	5442	-0.003341129282489419
0	5522	0.014847810380160809
0	5474	-0.008905600756406784
0	5562	0.01632854901254177
0	5514	-0.00890306755900383
0	5526	0.0022243366111069918
0	5578	0.009627490304410458
0	5524	-0.00997893325984478
0	5580	0.010326769202947617
0	5514	-0.012145153246819973
0	5522	0.0014695257414132357
0	5454	-0.01246913243085146
0	5342	-0.02051657810807228
0	5344	0.00036671230918727815
0	5226	-0.021750083193182945
0	5182	-0.008137599565088749
0	5174	-0.0014812987064942718
0	5094	-0.014745274558663368
0	5156	0.011407403275370598
0	5102	-0.009946705773472786
0	5182	0.014770684763789177
0	5212	0.005547268781810999
0	5182	-0.0055563785135746
0	5272	0.01669449172914028
0	5250	-0.004085978958755732
0	5306	0.01041627861559391
0	5280	-0.0048403311520814896
0	5352	0.013421150855720043
0	5320	-0.005969109944999218
0	5324	0.0007469747797586024
0	5342	0.0033642344642430544
0	5338	-0.0007480736821889877
0	5394	0.010485059581696987
0	5306	-0.016484752297401428
0	5368	0.011632852256298065
0	5332	-0.006760732736438513
0	5364	0.006016847211867571
0	5354	-0.0018827901221811771
0	5320	-0.00640832306817174
0	5342	0.0041533466428518295
0	5308	-0.006425763480365276
0	5374	0.012490379624068737
0	5356	-0.0034081873018294573
0	5334	-0.004165193997323513
0	5358	0.004544135183095932
0	5342	-0.0030269017443060875
0	5312	-0.005669720005244017
0	5368	0.010574284009635448
0	5292	-0.014326107688248158
0	5334	0.00791030004620552
0	5332	-0.000376133102690801
0	5302	-0.005636696238070726
0	5392	0.01690056174993515
0	5342	-0.00937687512487173
0	5444	0.019120458513498306
0	5432	-0.0022467421367764473
0	5454	0.00411579106003046
0	5538	0.01569780334830284
0	5526	-0.002239948371425271
0	5500	-0.0048470087349414825
0	5418	-0.015270018950104713
0	5336	-0.015262818895280361
0	5280	-0.010423516854643822
0	5174	-0.01974419504404068
0	5182	0.001491350238211453
0	5244	0.011571337468922138
0	5234	-0.0018673671875149012
0	5324	0.016819914802908897
0	5878	0.10355527698993683
0	6174	0.05513747036457062
0	5500	-0.12490425258874893
1	4672	-0.1532614380121231
0	4664	-0.0014872284373268485
0	5284	0.11575658619403839
0	5458	0.03249663859605789
0	5474	0.002986337523907423
0	5472	-0.00037298587267287076
0	5462	-0.0018630762351676822
0	5514	0.009682344272732735
0	5450	-0.011900334618985653
0	5510	0.011148547753691673
0	5488	-0.004083299543708563
0	5470	-0.0033370412420481443
0	5546	0.014082941226661205
0	5478	-0.012584669515490532
0	5518	0.0074011944234371185
0	5498	-0.0036986353807151318
0	5516	0.003327869111672044
0	5560	0.008135894313454628
0	5524	-0.006655246019363403
0	5598	0.013678204268217087
0	5558	-0.0073854331858456135
0	5562	0.0007375356508418918
0	5574	0.0022087786346673965
0	5500	-0.01358745526522398
0	5500	0.0
0	5410	-0.01646742969751358
0	5342	-0.012428716756403446
0	5322	-0.0036551044322550297
0	5226	-0.017604127526283264
0	5224	-0.00036889026523567736
0	5132	-0.016997795552015305
0	5114	-0.003316260874271393
0	5134	0.003674579318612814
0	5084	-0.009194895625114441
0	5182	0.01806340552866459
0	5154	-0.005170248914510012
0	5182	0.005180388689041138
0	5240	0.01074936706572771
0	5222	-0.0033416668884456158
0	5336	0.021193793043494225
0	5300	-0.0067000011913478374
0	5342	0.00782579556107521
0	5348	0.0011188602074980736
0	5350	0.0003734130004886538
0	5382	0.005979371257126331
0	5346	-0.0067324950359761715
0	5364	0.003369440557435155
0	5354	-0.00187368830665946
0	5366	0.00225132261402905
0	5344	-0.0041315071284770966
0	5306	-0.007147604133933783
0	5386	0.015071400441229343
0	5328	-0.01093885488808155
0	5340	0.0022667171433568
0	5320	-0.0037816716358065605
0	5322	0.0003785966837313026
0	5364	0.007954946719110012
0	5270	-0.017801456153392792
0	5358	0.01667066663503647
0	5326	-0.006057011429220438
0	5366	0.007566395215690136
0	5382	0.0030220989137887955
0	5334	-0.009051024913787842
0	5384	0.009416314773261547
0	5330	-0.010150503367185593
0	5352	0.004131558816879988
0	5346	-0.0011253939010202885
0	5428	0.015364629216492176
0	5470	0.00786045752465725
0	5410	-0.011211879551410675
0	5482	0.013448057696223259
0	5462	-0.0037313431967049837
0	5534	0.01342281885445118
0	5396	-0.025697365403175354
0	5334	-0.011541898362338543
0	5272	-0.011545336805284023
0	5180	-0.01713966391980648
0	5182	0.00037302763666957617
0	5230	0.008962246589362621
0	5210	-0.0037374328821897507
0	5286	0.014214109629392624
0	5468	0.03404329717159271
0	6238	0.14395572245121002
0	5738	-0.09295061975717545
1	4926	-0.15058043599128723
0	4414	-0.09517908096313477
0	4972	0.10431726276874542
0	5370	0.07458770275115967
0	5506	0.025471344590187073
0	5434	-0.013472381979227066
0	5462	0.0052357325330376625
0	5446	-0.002990057924762368
0	5444	-0.00037360828719101846
0	5482	0.007093699183315039
0	5440	-0.007835625670850277
0	5510	0.013050450012087822
0	5446	-0.011920134536921978
0	5466	0.0037227310240268707
0	5482	0.0029774829745292664
0	5444	-0.007070994935929775
0	5506	0.011534454300999641
0	5500	-0.0011160714784637094
0	5470	-0.005579042714089155
0	5556	0.015999604016542435
0	5508	-0.00892115943133831
0	5548	0.007426294032484293
0	5554	0.0011120446724817157
0	5470	-0.015532736666500568
0	5472	0.000369171699276194
0	5372	-0.01843114010989666
0	5360	-0.002209537895396352
0	5322	-0.006993693299591541
0	5252	-0.012894668616354465
0	5258	0.0011119897244498134
0	5182	-0.01412709429860115
0	5164	-0.003340591909363866
0	5182	0.003325164085254073
0	5156	-0.00479681184515357
0	5226	0.012931512668728828
0	5152	-0.013694067485630512
0	5222	0.012976420111954212
0	5272	0.009282638318836689
0	5274	0.0003717057406902313
0	5336	0.01153502706438303
0	5330	-0.0011173045495525002
0	5356	0.00484496122226119
0	5404	0.008953108452260494
0	5374	-0.005597154144197702
0	5420	0.008587216958403587
0	5342	-0.014566551893949509
0	5392	0.00934346579015255
0	5362	-0.0056100632064044476
0	5322	-0.007486524526029825
0	5388	0.012364181689918041
0	5324	-0.012002100236713886
0	5366	0.007885448634624481
0	5294	-0.013533324934542179
0	5336	0.0079073216766119
0	5320	-0.0030148481018841267
0	5296	-0.0045265937224030495
0	5330	0.00641573965549469
0	5332	0.000377467687940225
0	5360	0.005284215323626995
0	5306	-0.010184068232774734
0	5338	0.006033182609826326
0	5324	-0.0026369320694357157
0	5344	0.003763265674933791
0	5478	0.02518828585743904
0	5358	-0.022511256858706474
0	5470	0.020993176847696304
0	5472	0.0003741348336916417
0	5496	0.004482629708945751
0	5474	-0.0041033546440303326
0	5344	-0.02421698346734047
0	5356	0.002235302934423089
0	5174	-0.03389662131667137
0	5206	0.005966586992144585
0	5254	0.008960908278822899
0	5230	-0.004483802244067192
0	5298	0.012719156220555305
0	5254	-0.008232301101088524
0	5714	0.08613909035921097
0	6202	0.09118200838565826
0	5674	-0.09811816364526749
0	4944	-0.13541589677333832
0	4202	-0.1379660815000534
0	4956	0.14121612906455994
0	5296	0.06381301581859589
0	5462	0.031163563951849937
0	5454	-0.0015005251625552773
0	5424	-0.0056214164942502975
0	5478	0.010112611576914787
0	5452	-0.004864601884037256
0	5426	-0.004861812572926283
0	5466	0.007474121171981096
0	5404	-0.01157565787434578
0	5516	0.020900461822748184
0	5466	-0.009320590645074844
0	5452	-0.002609960036352277
0	5440	-0.0022358025889843702
0	5454	0.0026089223101735115
0	5458	0.000745489785913378
0	5432	-0.00484682759270072
0	5528	0.017900651320815086
0	5464	-0.011920134536921978
0	5506	0.007817347534000874
0	5502	-0.0007429788238368928
0	5468	-0.006303767208009958
0	5474	0.0011109602637588978
0	5380	-0.017378872260451317
0	5366	-0.002587035298347473
0	5316	-0.009233041666448116
0	5254	-0.011477088555693626
0	5252	-0.00037240711390040815
0	5172	-0.014935404993593693
0	5234	0.011558538302779198
0	5152	-0.015189685858786106
0	5162	0.0018501617014408112
0	5182	0.003703383496031165
0	5152	-0.00556469289585948
0	5176	0.004460081923753023
0	5212	0.006700417026877403
0	5238	0.004847189411520958
0	5266	0.005227001383900642
0	5278	0.0022423758637160063
0	5400	0.02282421477138996
0	5340	-0.011225303635001183
0	5400	0.01123763807117939
0	5426	0.0048716505989432335
0	5400	-0.004872442223131657
0	5404	0.0007497938349843025
0	5356	-0.009000337682664394
0	5416	0.011257599107921124
0	5354	-0.01163401547819376
0	5362	0.001502798986621201
0	5388	0.0048872181214392185
0	5326	-0.011662757955491543
0	5358	0.006026138085871935
0	5314	-0.008291665464639664
0	5302	-0.002263638423755765
0	5356	0.010191370733082294
0	5294	-0.011701940558850765
0	5396	0.01925424486398697
0	5338	-0.010938717983663082
0	5426	0.01658770814538002
0	5448	0.004140319302678108
0	5410	-0.007141872774809599
0	5462	0.00975731760263443
0	5458	-0.000749157159589231
0	5492	0.0063568828627467155
0	5414	-0.014552600681781769
0	5302	-0.02086515910923481
0	5276	-0.0048409923911094666
0	5202	-0.013774958439171314
0	5252	0.009311103262007236
0	5234	-0.003352537751197815
0	5246	0.002237331122159958
0	5262	0.0029848518315702677
0	5348	0.01605735905468464
0	5930	0.10872001200914383
0	5906	-0.004468552302569151
0	5530	-0.06978988647460938
1	4604	-0.17169132828712463
0	4914	0.057767562568187714
0	5182	0.050077859312295914
0	5498	0.05911330133676529
0	5412	-0.016076769679784775
0	5450	0.00709988409653306
0	5402	-0.008963138796389103
0	5402	0.0
0	5454	0.00969871785491705
0	5410	-0.00820161122828722
0	5480	0.013038619421422482
0	5442	-0.007074417546391487
0	5450	0.0014883906114846468
0	5450	0.0
0	5450	0.0
0	5486	0.006695017218589783
0	5434	-0.009669141843914986
0	5466	0.00595112657174468
0	5524	0.01078815571963787
0	5462	-0.011524306610226631
0	5550	0.01634088158607483
0	5492	-0.010751890949904919
0	5502	0.0018504582112655044
0	5464	-0.007020914927124977
0	5396	-0.012545970268547535
0	5394	-0.0003686590353026986
0	5316	-0.01436605118215084
0	5264	-0.009579249657690525
0	5252	-0.0022196737118065357
0	5168	-0.015600624494254589
0	5182	0.002605943940579891
0	5142	-0.007418947760015726
0	5226	0.015557860024273396
0	5168	-0.01073941495269537
0	5176	0.0014843218959867954
0	5202	0.004831097554415464
0	5182	-0.00372194591909647
0	5248	0.012299206107854843
0	5268	0.0037306006997823715
0	5298	0.005602380260825157
0	5326	0.005232536233961582
0	5312	-0.0026187803596258163
0	5398	0.016099844127893448
0	5356	-0.007865266874432564
0	5378	0.0041223205626010895
0	5370	-0.0014997001271694899
0	5336	-0.006378348916769028
0	5404	0.01276452001184225
0	5360	-0.00826259981840849
0	5352	-0.0015038347337394953
0	5350	-0.0003762179985642433
0	5340	-0.001883452059701085
0	5364	0.004524602554738522
0	5330	-0.006415416952222586
0	5384	0.01019778661429882
0	5320	-0.01208717841655016
0	5364	0.008313808590173721
0	5330	-0.0064223650842905045
0	5326	-0.0007552584866061807
0	5372	0.00868142955005169
0	5378	0.0011309089604765177
0	5410	0.0060240961611270905
0	5460	0.009396848268806934
0	5448	-0.002251942176371813
0	5510	0.011614691466093063
0	5470	-0.007477753330022097
0	5384	-0.016050366684794426
0	5362	-0.004100754391402006
0	5252	-0.02048925869166851
0	5248	-0.000745137978810817
0	5240	-0.001490738708525896
0	5278	0.0070847938768565655
0	5298	0.0037296267691999674
0	5274	-0.0044783358462154865
0	5576	0.05638115108013153
0	6082	0.0943501740694046
0	5820	-0.04863801226019859
0	5314	-0.09365398436784744
0	4558	-0.14000345766544342
0	4506	-0.009677779860794544
0	4980	0.08868212252855301
0	5450	0.08813712000846863
0	5442	-0.0014991754433140159
0	5456	0.0026222793385386467
0	5436	-0.0037431686650961637
0	5440	0.000748390972148627
0	5486	0.008600059896707535
0	5430	-0.010461684316396713
0	5490	0.011201971210539341
0	5456	-0.006341312080621719
0	5446	-0.0018641181522980332
0	5468	0.0040993280708789825
0	5416	-0.00968583207577467
0	5508	0.017141152173280716
0	5468	-0.007449899334460497
0	5494	0.0048436978831887245
0	5512	0.0033528292551636696
0	5482	-0.005583611316978931
0	5552	0.013018734753131866
0	5502	-0.009281833656132221
0	5528	0.004818979185074568
0	5516	-0.002220194088295102
0	5454	-0.011454189196228981
0	5454	0.0
0	5382	-0.013274172320961952
0	5360	-0.004060838837176561
0	5262	-0.018169907853007317
0	5182	-0.014883906580507755
0	5178	-0.000744805030990392
0	5110	-0.01261314656585455
0	5182	0.01330540794879198
0	5158	-0.0044296239502727985
0	5182	0.004437596071511507
0	5182	0.0
0	5182	0.0
0	5262	0.014864178374409676
0	5220	-0.00781230628490448
0	5264	0.008197841234505177
0	5248	-0.002984109567478299
0	5268	0.0037357574328780174
0	5338	0.013090474531054497
0	5300	-0.007111045066267252
0	5386	0.01611029915511608
0	5368	-0.0033725546672940254
0	5356	-0.0022503375075757504
0	5408	0.009758294560015202
0	5338	-0.013143236748874187
0	5410	0.013533495366573334
0	5346	-0.012035203166306019
0	5356	0.0018829317996278405
0	5348	-0.0015077270800247788
0	5296	-0.009811320342123508
0	5336	0.0075576272793114185
0	5304	-0.0060505978763103485
0	5294	-0.001892601139843464
0	5346	0.009846992790699005
0	5314	-0.0060602230951189995
0	5370	0.010601910762488842
0	5350	-0.0037819098215550184
0	5352	0.00037778139812871814
0	5350	-0.00037720665568485856
0	5358	0.0015072347596287727
0	5462	0.01956947147846222
0	5404	-0.010894610546529293
0	5494	0.01688196323812008
0	5494	0.0
0	5512	0.003364947158843279
0	5506	-0.00111961190123111
0	5338	-0.031302012503147125
0	5336	-0.0003724348498508334
0	5212	-0.0230812169611454
0	5230	0.003353120991960168
0	5236	0.0011181930312886834
0	5218	-0.0033577079884707928
0	5262	0.00821539293974638
0	5272	0.0018682277295738459
0	5704	0.08077584952116013
0	6066	0.06753311306238174
0	5406	-0.12262643128633499
0	4818	-0.10920841991901398
0	4332	-0.0905657559633255
0	4826	0.09264121204614639
0	5336	0.09592355787754059
0	5448	0.021065566688776016
0	5484	0.006764967460185289
0	5438	-0.008633849211037159
0	5476	0.007128207944333553
0	5496	0.0037478916347026825
0	5450	-0.008613372221589088
0	5488	0.007110955659300089
0	5442	-0.008600703440606594
0	5508	0.012333067134022713
0	5438	-0.01306831557303667
0	5480	0.007842160761356354
0	5488	0.001493038609623909
0	5462	-0.004852557089179754
0	5482	0.003733479417860508
0	5488	0.001120253000408411
0	5520	0.005975351668894291
0	5546	0.004849479533731937
0	5522	-0.004470605868846178
0	5586	0.011898712255060673
0	5532	-0.010017437860369682
0	5522	-0.0018516917480155826
0	5488	-0.006283960770815611
0	5400	-0.016241755336523056
0	5374	-0.004794924985617399
0	5306	-0.012566064484417439
0	5252	-0.010025869123637676
0	5226	-0.004831875674426556
0	5116	-0.020391013473272324
0	5152	0.006641249638050795
0	5100	-0.009573724120855331
0	5128	0.005162559449672699
0	5158	0.005542213097214699
0	5166	0.0014808964915573597
0	5238	0.01335047371685505
0	5204	-0.006313678342849016
0	5216	0.0022323920857161283
0	5260	0.008197331801056862
0	5236	-0.004477611742913723
0	5324	0.01643897034227848
0	5318	-0.0011221246095374227
0	5368	0.009358038194477558
0	5350	-0.003371249418705702
0	5330	-0.0037490627728402615
0	5362	0.0060034519992768764
0	5346	-0.003003980265930295
0	5364	0.0033824837300926447
0	5358	-0.001128597417846322
0	5338	-0.0037664310075342655
0	5380	0.007918652147054672
0	5342	-0.007173781283199787
0	5362	0.0037801943253725767
0	5338	-0.004540810827165842
0	5334	-0.000757518399041146
0	5362	0.00530483853071928
0	5332	-0.005684186704456806
0	5352	0.0037888356018811464
0	5342	-0.0018932222155854106
0	5362	0.0037836746778339148
0	5372	0.0018889070488512516
0	5304	-0.012826800346374512
0	5354	0.009419388137757778
0	5322	-0.0060198656283319
0	5390	0.012779071927070618
0	5482	0.017265107482671738
0	5420	-0.0116174491122365
0	5492	0.013473053462803364
0	5436	-0.010461032390594482
0	5548	0.020899159833788872
0	5500	-0.00893943477421999
0	5334	-0.03088180534541607
0	5362	0.005208462476730347
0	5182	-0.03348422050476074
0	5200	0.003351913532242179
0	5284	0.015654895454645157
0	5182	-0.019018733873963356
0	5280	0.018291546031832695
0	5286	0.0011204760521650314
0	5814	0.09864610433578491
0	5962	0.027569077908992767
0	5358	-0.11210650950670242
1	4478	-0.16331782937049866
0	4906	0.0798686295747757
0	5400	0.09243319928646088
0	5418	0.003366625402122736
0	5484	0.012339984998106956
0	5448	-0.006724530830979347
0	5516	0.012694303877651691
0	5458	-0.010815783403813839
0	5496	0.007081977091729641
0	5468	-0.005214282311499119
0	5498	0.005581049248576164
0	5488	-0.0018586900550872087
0	5472	-0.002970848698168993
0	5524	0.009650359861552715
0	5512	-0.002226427663117647
0	5488	-0.004450323060154915
0	5542	0.010013475082814693
0	5466	-0.014083811081945896
0	5568	0.018911536782979965
0	5528	-0.00741317356005311
0	5574	0.008514944463968277
0	5564	-0.0018486565677449107
0	5540	-0.00442635640501976
0	5566	0.004785217344760895
0	5490	-0.013963401317596436
0	5460	-0.005501491483300924
0	5424	-0.006594533566385508
0	5302	-0.02232932858169079
0	5230	-0.013219255954027176
0	5152	-0.014385304413735867
0	5156	0.000738643342629075
0	5112	-0.008091309107840061
0	5112	0.0
0	5180	0.012511039152741432
0	5124	-0.010318269953131676
0	5182	0.010710461065173149
0	5180	-0.0003699319495353848
0	5212	0.005931197665631771
0	5246	0.006311490666121244
0	5208	-0.007064948324114084
0	5272	0.011918063275516033
0	5254	-0.0033566642086952925
0	5302	0.008964143693447113
0	5310	0.0014956066152080894
0	5322	0.0022464056964963675
0	5372	0.009371134452521801
0	5330	-0.007877461612224579
0	5388	0.01089283637702465
0	5350	-0.007140172645449638
0	5354	0.000752624764572829
0	5374	0.003767235204577446
0	5308	-0.012447507120668888
0	5364	0.010578545741736889
0	5298	-0.012481403537094593
0	5344	0.00871388241648674
0	5320	-0.004550567828118801
0	5324	0.0007590997265651822
0	5354	0.005696851294487715
0	5326	-0.005315312184393406
0	5384	0.011003605090081692
0	5330	-0.010229726321995258
0	5370	0.0075692590326070786
0	5368	-0.00037784804590046406
0	5364	-0.0007544797263108194
0	5364	0.0
0	5330	-0.006396027281880379
0	5368	0.007141872774809599
0	5408	0.0075089167803525925
0	5454	0.008624676614999771
0	5490	0.006740983575582504
0	5472	-0.003364569740369916
0	5464	-0.0014935033395886421
0	5566	0.019017314538359642
0	5418	-0.027548549696803093
0	5380	-0.007068540435284376
0	5282	-0.018222838640213013
0	5164	-0.02195403352379799
0	5218	0.010057114064693451
0	5172	-0.008576222695410252
0	5254	0.015304979868233204
0	5216	-0.007096967194229364
0	5352	0.02542467974126339
0	6044	0.1293312907218933
0	5940	-0.019355079159140587
0	5512	-0.07933761924505234
1	4462	-0.19443485140800476
0	4878	0.07744337618350983
0	5410	0.09931302815675735
0	5492	0.015302314423024654
0	5430	-0.01155810710042715
0	5508	0.014536689035594463
0	5458	-0.009308097884058952
0	5472	0.002604844979941845
0	5540	0.012643948197364807
0	5478	-0.011515744961798191
0	5538	0.011136408895254135
0	5496	-0.007785467430949211
0	5524	0.005186209920793772
0	5494	-0.005552676506340504
0	5490	-0.0007401742041110992
0	5518	0.005181219428777695
0	5496	-0.004069803282618523
0	5526	0.005548636894673109
0	5546	0.0037000037264078856
0	5560	0.0025879598688334227
0	5558	-0.00036929897032678127
0	5540	-0.0033180539030581713
0	5584	0.008092102594673634
0	5508	-0.013945977203547955
0	5512	0.0007324934122152627
0	5438	-0.013529820367693901
0	5422	-0.0029214140959084034
0	5338	-0.01533089205622673
0	5260	-0.014297235757112503
0	5240	-0.003681252710521221
0	5164	-0.014012143947184086
0	5174	0.0018357831286266446
0	5152	-0.004031420685350895
0	5134	-0.003303641453385353
0	5182	0.008829046972095966
0	5174	-0.0014737488236278296
0	5182	0.001476777601055801
0	5238	0.010355029255151749
0	5212	-0.004814636427909136
0	5338	0.02337980456650257
0	5304	-0.0063143037259578705
0	5372	0.012646928429603577
0	5342	-0.005583819467574358
0	5378	0.00670815771445632
0	5422	0.00820477120578289
0	5346	-0.014177870005369186
0	5384	0.007096525281667709
0	5336	-0.008970285765826702
0	5332	-0.0007484096568077803
0	5382	0.0093676233664155
0	5332	-0.009378047659993172
0	5384	0.009766969829797745
0	5340	-0.008272439241409302
0	5334	-0.001129787415266037
0	5376	0.007917159236967564
0	5302	-0.01396121084690094
0	5364	0.011707243509590626
0	5316	-0.009066983126103878
0	5366	0.009446081705391407
0	5358	-0.0015103648183867335
0	5312	-0.008678154088556767
0	5372	0.011308806017041206
0	5316	-0.010541771538555622
0	5384	0.012787563726305962
0	5332	-0.009763424284756184
0	5322	-0.001875820686109364
0	5358	0.0067467112094163895
0	5404	0.008611329831182957
0	5462	0.01084652729332447
0	5410	-0.009709342382848263
0	5470	0.011198068037629128
0	5514	0.008203445002436638
0	5492	-0.004098106175661087
0	5458	-0.006327543407678604
0	5350	-0.02008928544819355
0	5282	-0.012654458172619343
0	5222	-0.011170133017003536
0	5182	-0.0074542490765452385
0	5272	0.016788121312856674
0	5236	-0.006717754993587732
0	5296	0.011206434108316898
0	5356	0.011208946816623211
0	6174	0.1528419703245163
0	5762	-0.07658372074365616
0	5170	-0.10975157469511032
1	4244	-0.17189104855060577
0	4938	0.12967437505722046
0	5366	0.08018485456705093
0	5436	0.013110250234603882
0	5476	0.007488299626857042
0	5422	-0.010101765394210815
0	5482	0.011216490529477596
0	5460	-0.004109896253794432
0	5450	-0.0018664608942344785
0	5480	0.0055970847606658936
0	5462	-0.0033551626838743687
0	5482	0.0037247184664011
0	5456	-0.004838409833610058
0	5452	-0.0007441306952387094
0	5500	0.008930121548473835
0	5452	-0.008925139904022217
0	5500	0.008926136419177055
0	5500	0.0
0	5486	-0.0026035532355308533
0	5542	0.010412405245006084
0	5500	-0.007800022140145302
0	5566	0.012240658514201641
0	5528	-0.007032695692032576
0	5468	-0.01108060497790575
0	5426	-0.007747076451778412
0	5362	-0.011791293509304523
0	5338	-0.004419943783432245
0	5280	-0.010682710446417332
0	5200	-0.014816095121204853
0	5236	0.006690455134958029
0	5138	-0.018205462023615837
0	5180	0.007759385276585817
0	5170	-0.0018447234760969877
0	5152	-0.003324508899822831
0	5216	0.011841179803013802
0	5164	-0.009636410512030125
0	5220	0.010394238866865635
0	5242	0.0040900809690356255
0	5308	0.012286841869354248
0	5296	-0.0022359415888786316
0	5328	0.005969332531094551
0	5370	0.007841282524168491
0	5352	-0.0033628935925662518
0	5408	0.01046911533921957
0	5406	-0.00037399952998384833
0	5356	-0.009355470538139343
0	5402	0.008612189441919327
0	5346	-0.010490820743143559
0	5380	0.006375557743012905
0	5336	-0.008256192319095135
0	5298	-0.007139546796679497
0	5366	0.012792213819921017
0	5310	-0.010547992773354053
0	5366	0.010562450625002384
0	5316	-0.009436811320483685
0	5318	0.00037773384246975183
0	5340	0.004156223498284817
0	5344	0.0007556675118394196
0	5398	0.01019740104675293
0	5326	-0.01357960980385542
0	5380	0.010178947821259499
0	5390	0.0018821285339072347
0	5402	0.002255582483485341
0	5476	0.013889236375689507
0	5380	-0.01798201911151409
0	5464	0.01571817137300968
0	5436	-0.005229604430496693
0	5518	0.015294702723622322
0	5466	-0.009682465344667435
0	5324	-0.026414673775434494
0	5346	0.004091703798621893
0	5182	-0.030498387292027473
0	5220	0.0070749446749687195
0	5182	-0.007080745417624712
0	5218	0.0067175040021538734
0	5226	0.0014945262810215354
0	5234	0.0014957372331991792
0	5704	0.0879666656255722
0	6120	0.07768633961677551
0	5626	-0.09182953089475632
0	4852	-0.143620565533638
0	4242	-0.11350244283676147
0	4942	0.1311631053686142
0	5238	0.055591028183698654
0	5430	0.03608796373009682
0	5440	0.0018782400293275714
0	5428	-0.0022521675564348698
0	5478	0.009378869086503983
0	5406	-0.013494264334440231
0	5506	0.018741097301244736
0	5458	-0.00898562278598547
0	5458	0.0
0	5472	0.0026184211019426584
0	5408	-0.011964703910052776
0	5464	0.010473554953932762
0	5458	-0.0011215792037546635
0	5466	0.0014954948564991355
0	5490	0.004485645797103643
0	5442	-0.008972857147455215
0	5500	0.010843824595212936
0	5512	0.002241091802716255
0	5532	0.003731296630576253
0	5578	0.008563343435525894
0	5500	-0.014488267712295055
0	5488	-0.002224584110081196
0	5430	-0.010734247043728828
0	5420	-0.0018484059255570173
0	5350	-0.012924031354486942
0	5264	-0.01591276377439499
0	5246	-0.0033482559956610203
0	5180	-0.01230593305081129
0	5210	0.005582225974649191
0	5176	-0.006288764998316765
0	5182	0.001108183292672038
0	5226	0.008129480294883251
0	5172	-0.00998963974416256
0	5240	0.012600370682775974
0	5182	-0.01075986959040165
0	5262	0.014868414960801601
0	5298	0.006696760654449463
0	5274	-0.004470272921025753
0	5318	0.008204873651266098
0	5306	-0.002239641733467579
0	5362	0.010462465696036816
0	5376	0.0026163661386817694
0	5342	-0.006357516627758741
0	5396	0.010104537941515446
0	5336	-0.011232169345021248
0	5388	0.009743910282850266
0	5358	-0.0056233834475278854
0	5350	-0.0015009006019681692
0	5336	-0.0026292395778000355
0	5332	-0.0007521341321989894
0	5350	0.003389830468222499
0	5274	-0.014326107688248158
0	5344	0.013212865218520164
0	5292	-0.009820585139095783
0	5324	0.00604831101372838
0	5344	0.003780813654884696
0	5282	-0.011714616790413857
0	5336	0.0102007407695055
0	5294	-0.007926124148070812
0	5340	0.008676407858729362
0	5316	-0.004522158298641443
0	5330	0.00263570761308074
0	5402	0.013546226546168327
0	5416	0.0026301946491003036
0	5456	0.0075065684504806995
0	5416	-0.00749372411519289
0	5492	0.014224397018551826
0	5516	0.004486484453082085
0	5452	-0.011945944279432297
0	5410	-0.007832995615899563
0	5308	-0.019010698422789574
0	5250	-0.010813632048666477
0	5206	-0.008209874853491783
0	5182	-0.004481904208660126
0	5262	0.014959609135985374
0	5222	-0.0074832565151154995
0	5264	0.007865561172366142
0	5716	0.08469811826944351
0	6050	0.062443915754556656
0	5494	-0.10348806530237198
0	4692	-0.1491260677576065
0	4326	-0.06833372265100479
0	4950	0.11719483137130737
0	5336	0.07267478108406067
0	5508	0.03237464278936386
0	5432	-0.014288580045104027
0	5466	0.006388735957443714
0	5438	-0.0052552553825080395
0	5456	0.0033762238454073668
0	5498	0.007869885303080082
0	5436	-0.011605994775891304
0	5500	0.01197141781449318
0	5508	0.0014948428142815828
0	5450	-0.010830460116267204
0	5530	0.014935404993593693
0	5456	-0.013808890245854855
0	5502	0.008581768721342087
0	5484	-0.0033578749280422926
0	5492	0.0014926857547834516
0	5524	0.005969258490949869
0	5484	-0.0074562872759997845
0	5560	0.014151469804346561
0	5524	-0.006690455134958029
0	5570	0.008532106876373291
0	5570	0.0
0	5462	-0.01994607225060463
0	5464	0.00036882676067762077
0	5370	-0.017313571646809578
0	5366	-0.0007383161573670805
0	5252	-0.021130938082933426
0	5182	-0.012994566932320595
0	5220	0.007032869383692741
0	5134	-0.015829192474484444
0	5176	0.007721818517893553
0	5208	0.005889065098017454
0	5158	-0.009218629449605942
0	5222	0.011819749139249325
0	5204	-0.0033293054439127445
0	5248	0.00815005972981453
0	5260	0.002225601812824607
0	5282	0.004086282569915056
0	5352	0.013014215975999832
0	5322	-0.005582641810178757
0	5388	0.012295997701585293
0	5344	-0.008200489915907383
0	5378	0.00634407252073288
0	5350	-0.005227066110819578
0	5358	0.0014948614407330751
0	5400	0.007854185998439789
0	5324	-0.014220492914319038
0	5370	0.008617890067398548
0	5324	-0.008624030277132988
0	5320	-0.0007510232389904559
0	5334	0.0026319418102502823
0	5282	-0.009790262207388878
0	5344	0.011694141663610935
0	5308	-0.006795187946408987
0	5300	-0.001511525479145348
0	5366	0.012475583702325821
0	5318	-0.009073152206838131
0	5354	0.006802035961300135
0	5322	-0.006039711181074381
0	5346	0.004526878707110882
0	5360	0.002637163968756795
0	5318	-0.007902361452579498
0	5390	0.013537567108869553
0	5340	-0.00938743818551302
0	5408	0.012757494114339352
0	5474	0.01236649788916111
0	5438	-0.006735854782164097
0	5470	0.0059807864017784595
0	5438	-0.005973789840936661
0	5526	0.01641913503408432
0	5460	-0.012298747897148132
0	5380	-0.01490090973675251
0	5344	-0.006703910417854786
0	5230	-0.021233530715107918
0	5220	-0.0018639792688190937
0	5182	-0.007089199498295784
0	5218	0.006725200917571783
0	5244	0.0048602973110973835
0	5274	0.005612442269921303
0	5856	0.10891533643007278
0	5918	0.011563999578356743
0	5402	-0.09589415043592453
1	4570	-0.1545051634311676
0	4818	0.046276140958070755
0	5274	0.08534850925207138
0	5482	0.03893721476197243
0	5418	-0.011972015723586082
0	5512	0.01757293939590454
0	5470	-0.007844015955924988
0	5504	0.00634407252073288
0	5508	0.0007456287275999784
0	5452	-0.010429211892187595
0	5486	0.006326758302748203
0	5462	-0.004463289398699999
0	5466	0.0007433193968608975
0	5472	0.0011145786847919226
0	5470	-0.00037153082666918635
0	5508	0.007057687267661095
0	5444	-0.011883835308253765
0	5526	0.015225599519908428
0	5508	-0.003342204727232456
0	5530	0.004083703737705946
0	5554	0.00445081852376461
0	5546	-0.0014816827606409788
0	5566	0.0036969943903386593
0	5514	-0.009591735899448395
0	5560	0.008467712439596653
0	5468	-0.01689996011555195
0	5436	-0.00587019557133317
0	5400	-0.006597434636205435
0	5274	-0.023155521601438522
0	5274	0.0
0	5154	-0.022157663479447365
0	5166	0.0022078303154557943
0	5152	-0.0025703166611492634
0	5176	0.004409549292176962
0	5182	0.0011044570710510015
0	5152	-0.00553029403090477
0	5236	0.015519153326749802
0	5182	-0.0099909957498312
0	5274	0.017055567353963852
0	5206	-0.012624543160200119
0	5234	0.005206267349421978
0	5286	0.00968390703201294
0	5344	0.010813094675540924
0	5314	-0.005597223993390799
0	5370	0.010458428412675858
0	5334	-0.006727462634444237
0	5426	0.017211060971021652
0	5354	-0.013471038080751896
0	5388	0.006368154194205999
0	5388	0.0
0	5350	-0.007129009813070297
0	5388	0.007138116285204887
0	5350	-0.007145185023546219
0	5358	0.0015062886523082852
0	5328	-0.005654118489474058
0	5344	0.0030199314933270216
0	5358	0.002644503256306052
0	5338	-0.0037797181867063046
0	5394	0.010587344877421856
0	5320	-0.013979848474264145
0	5376	0.010576281696557999
0	5344	-0.006035154685378075
0	5352	0.0015071021625772119
0	5364	0.0022578176576644182
0	5324	-0.007517195772379637
0	5378	0.010139195248484612
0	5342	-0.006749915890395641
0	5344	0.00037474706186912954
0	5440	0.017969675362110138
0	5428	-0.0022438853047788143
0	5456	0.0052284980192780495
0	5446	-0.0018647440010681748
0	5502	0.01043219119310379
0	5518	0.002977704396471381
0	5430	-0.01635667309165001
0	5418	-0.0022296267561614513
0	5334	-0.015599272213876247
0	5224	-0.020439259707927704
0	5204	-0.003719223430380225
0	5208	0.00074469402898103
0	5234	0.004845924209803343
0	5182	-0.009698837995529175
0	5296	0.02129010483622551
0	5898	0.11246450990438461
0	5916	0.0033514562528580427
0	5266	-0.12058474868535995
1	4436	-0.1540517508983612
0	4926	0.0914679616689682
0	5448	0.09769182652235031
0	5498	0.00935430359095335
0	5416	-0.015324046835303307
0	5464	0.008967939764261246
0	5468	0.0007467702380381525
0	5462	-0.0011193472892045975
0	5496	0.006339104846119881
0	5470	-0.004842374473810196
0	5446	-0.004467332269996405
0	5518	0.013393355533480644
0	5434	-0.015608740970492363
0	5508	0.013751069083809853
0	5476	-0.00594346271827817
0	5492	0.0029713634867221117
0	5510	0.0033418324310332537
0	5496	-0.0025990742724388838
0	5530	0.006312896963208914
0	5548	0.0033400547690689564
0	5530	-0.003337371163070202
0	5620	0.01666666753590107
0	5528	-0.016995491459965706
0	5546	0.003318584058433771
0	5456	-0.01655852608382702
0	5402	-0.009921607561409473
0	5342	-0.011009174399077892
0	5226	-0.021278416737914085
0	5212	-0.0025786804035305977
0	5156	-0.010359499603509903
0	5140	-0.0029618660919368267
0	5140	0.0
0	5152	0.0022088871337473392
0	5174	0.004056994803249836
0	5132	-0.007760628126561642
0	5216	0.015548452734947205
0	5200	-0.002966148778796196
0	5232	0.005942138377577066
0	5302	0.013016958720982075
0	5274	-0.005213052500039339
0	5340	0.012302874587476254
0	5314	-0.0048497808165848255
0	5356	0.007844211533665657
0	5374	0.003363438183441758
0	5396	0.004114302806556225
0	5444	0.008981139399111271
0	5340	-0.019464964047074318
0	5402	0.011616433039307594
0	5382	-0.003749437630176544
0	5322	-0.011258725076913834
0	5384	0.011650485917925835
0	5324	-0.011284983716905117
0	5346	0.004145520273596048
0	5358	0.0022637806832790375
0	5308	-0.009443583898246288
0	5326	0.0034028610680252314
0	5316	-0.0018913841340690851
0	5376	0.011350165121257305
0	5364	-0.0022678880486637354
0	5316	-0.0090628731995821
0	5392	0.014335115440189838
0	5332	-0.01129929255694151
0	5350	0.0033857072703540325
0	5362	0.002254339400678873
0	5334	-0.005253940355032682
0	5352	0.0033732710871845484
0	5376	0.004493876826018095
0	5452	0.014214995317161083
0	5446	-0.0011206993367522955
0	5482	0.006718172691762447
0	5542	0.011182486079633236
0	5534	-0.0014891293831169605
0	5468	-0.012268570251762867
0	5360	-0.02006191946566105
0	5324	-0.006687886081635952
0	5238	-0.015983743593096733
0	5182	-0.01042131893336773
0	5254	0.013411983847618103
0	5262	0.0014915912179276347
0	5308	0.008583050221204758
0	5366	0.010823049582540989
0	5980	0.11458786576986313
0	5992	0.0022304002195596695
0	5362	-0.1166292279958725
0	4568	-0.1469862312078476
0	4364	-0.0379379577934742
0	4954	0.11038078367710114
0	5456	0.09412970393896103
0	5462	0.0011244940105825663
0	5508	0.008615845814347267
0	5462	-0.008605530485510826
0	5470	0.0014959608670324087
0	5474	0.000747337588109076
0	5454	-0.0037338044494390488
0	5508	0.010075503960251808
0	5464	-0.008200795389711857
0	5494	0.005587562918663025
0	5520	0.0048390100710093975
0	5472	-0.008929789997637272
0	5524	0.009672379121184349
0	5474	-0.00929794367402792
0	5532	0.010790162719786167
0	5552	0.003720791544765234
0	5516	-0.006693938281387091
0	5580	0.011888839304447174
0	5586	0.001112814643420279
0	5604	0.003331276820972562
0	5550	-0.009967881254851818
0	5472	-0.014371875673532486
0	5474	0.0003680349327623844
0	5360	-0.020956654101610184
0	5316	-0.008088829927146435
0	5266	-0.009229405783116817
0	5182	-0.015574976801872253
0	5234	0.009652390144765377
0	5152	-0.015158610418438911
0	5182	0.005519034340977669
0	5110	-0.01322718895971775
0	5152	0.0077322437427937984
0	5162	0.0018445192836225033
0	5182	0.0036969033535569906
0	5252	0.012961522676050663
0	5232	-0.0037082817871123552
0	5292	0.011141509748995304
0	5270	-0.004089320544153452
0	5284	0.0026061381213366985
0	5326	0.007827157154679298
0	5324	-0.0003731111064553261
0	5382	0.01083342730998993
0	5322	-0.011213276535272598
0	5336	0.002619727747514844
0	5368	0.005993107799440622
0	5326	-0.007874015718698502
0	5342	0.003003867343068123
0	5334	-0.0015035710530355573
0	5332	-0.0003764729481190443
0	5334	0.0003770739131141454
0	5292	-0.007932011038064957
0	5350	0.010971549898386002
0	5300	-0.009465513750910759
0	5340	0.0075807347893714905
0	5326	-0.002653592498973012
0	5300	-0.004927788861095905
0	5394	0.017812024801969528
0	5346	-0.00908333994448185
0	5388	0.007942311465740204
0	5374	-0.0026435046456754208
0	5398	0.004526252392679453
0	5468	0.013177710585296154
0	5394	-0.01390315406024456
0	5496	0.019136004149913788
0	5514	0.003370323684066534
0	5484	-0.00560803571715951
0	5458	-0.004852677695453167
0	5332	-0.023492561653256416
0	5252	-0.014910166151821613
0	5208	-0.008202222175896168
0	5182	-0.004850323777645826
0	5234	0.009709221310913563
0	5214	-0.0037377590779215097
0	5278	0.011968880891799927
0	5318	0.0074832565151154995
0	5994	0.1265064775943756
0	5986	-0.0014909054152667522
0	5490	-0.09206780791282654
1	4602	-0.1646721363067627
0	4826	0.041727207601070404
0	5152	0.06092015653848648
0	5486	0.06246960535645485
0	5462	-0.004485031124204397
0	5456	-0.0011201275046914816
0	5458	0.00037310647894628346
0	5436	-0.00410080561414361
0	5478	0.00782219972461462
0	5468	-0.001861457945778966
0	5486	0.0033480895217508078
0	5462	-0.004461408592760563
0	5506	0.008174791932106018
0	5460	-0.008540661074221134
0	5474	0.002599460305646062
0	5476	0.0003711676981765777
0	5448	-0.005196990445256233
0	5514	0.012255053967237473
0	5458	-0.010396297089755535
0	5484	0.00482685212045908
0	5524	0.007418947760015726
0	5492	-0.005925194825977087
0	5522	0.005545150022953749
0	5502	-0.0036890385672450066
0	5464	-0.0069976430386304855
0	5394	-0.01287064328789711
0	5326	-0.01249402854591608
0	5334	0.0014698136365041137
0	5228	-0.01955406926572323
0	5202	-0.0048187412321567535
0	5160	-0.007797994650900364
0	5140	-0.0037005513440817595
0	5176	0.006648117210716009
0	5152	-0.004431423731148243
0	5152	0.0
0	5206	0.01001038122922182
0	5214	0.0014853138709440827
0	5268	0.01004103198647499
0	5252	-0.00297822174616158
0	5278	0.004846406169235706
0	5302	0.004478893242776394
0	5330	0.005231363233178854
0	5386	0.010471335612237453
0	5308	-0.014595991000533104
0	5364	0.010489117354154587
0	5388	0.004498425405472517
0	5374	-0.0026255252305418253
0	5374	0.0
0	5342	-0.006009239237755537
0	5366	0.004510204307734966
0	5368	0.00037612838787026703
0	5336	-0.006023945286870003
0	5354	0.0033917895052582026
0	5292	-0.011695170775055885
0	5364	0.01359944511204958
0	5320	-0.008316008374094963
0	5334	0.0026472369208931923
0	5316	-0.0034034186974167824
0	5314	-0.00037820052239112556
0	5354	0.00755991181358695
0	5318	-0.006797411944717169
0	5330	0.002263552974909544
0	5438	0.02034766785800457
0	5418	-0.00376189686357975
0	5478	0.011266900226473808
0	5436	-0.007870769128203392
0	5518	0.015344694256782532
0	5500	-0.0033619722817093134
0	5434	-0.012309451587498188
0	5372	-0.0115503566339612
0	5222	-0.027928108349442482
0	5218	-0.0007451194687746465
0	5182	-0.006710742134600878
0	5208	0.00485279830172658
0	5232	0.004482294898480177
0	5246	0.002616822486743331
0	5452	0.038538768887519836
0	6048	0.1114463061094284
0	5870	-0.033145055174827576
0	5358	-0.09502716362476349
1	4280	-0.20008662343025208
0	5012	0.13678663969039917
0	5468	0.08538366109132767
0	5478	0.0018711175071075559
0	5444	-0.006354427430778742
0	5446	0.00037360365968197584
0	5434	-0.0022398645523935556
0	5490	0.010446202009916306
0	5420	-0.013043640181422234
0	5438	0.0033518720883876085
0	5498	0.01116708479821682
0	5432	-0.012270091101527214
0	5478	0.008546479046344757
0	5450	-0.005200916435569525
0	5476	0.004828465636819601
0	5450	-0.004828525707125664
0	5440	-0.0018569641979411244
0	5500	0.011147167533636093
0	5480	-0.0037157225888222456
0	5542	0.011515459045767784
0	5554	0.0022264551371335983
0	5526	-0.005184417124837637
0	5538	0.002217677189037204
0	5432	-0.019546616822481155
0	5468	0.006629345938563347
0	5348	-0.02206585370004177
0	5334	-0.0025727413594722748
0	5326	-0.001471201190724969
0	5182	-0.026599347591400146
0	5218	0.006678126752376556
0	5156	-0.01151118241250515
0	5160	0.0007386524812318385
0	5180	0.003689900506287813
0	5170	-0.00184822385199368
0	5214	0.008147644810378551
0	5164	-0.009271850809454918
0	5230	0.012260213494300842
0	5174	-0.010415762662887573
0	5256	0.015281591564416885
0	5242	-0.002611712785437703
0	5302	0.011206714436411858
0	5366	0.011968433856964111
0	5340	-0.004864177200943232
0	5362	0.004119387362152338
0	5396	0.006369824521243572
0	5380	-0.0029990628827363253
0	5420	0.007500937674194574
0	5340	-0.015003751032054424
0	5352	0.002252815989777446
0	5310	-0.007891177199780941
0	5334	0.004515805281698704
0	5346	0.00226102233864367
0	5310	-0.006790744140744209
0	5348	0.0071782986633479595
0	5322	-0.004914067219942808
0	5354	0.006053650286048651
0	5350	-0.0007566777057945728
0	5320	-0.005674510262906551
0	5378	0.010971134528517723
0	5318	-0.011335440911352634
0	5364	0.008685034699738026
0	5322	-0.007919448427855968
0	5356	0.006404460873454809
0	5386	0.005644756834954023
0	5406	0.0037580798380076885
0	5464	0.010885341092944145
0	5386	-0.014611484482884407
0	5466	0.014971553348004818
0	5480	0.0026152580976486206
0	5460	-0.003730879398062825
0	5418	-0.007824240252375603
0	5304	-0.021221937611699104
0	5320	0.0029796636663377285
0	5182	-0.025702789425849915
0	5182	0.0
0	5202	0.0037341765128076077
0	5182	-0.003738317871466279
0	5256	0.013852315954864025
0	5270	0.0026220830623060465
0	5842	0.10718569159507751
0	5942	0.018676694482564926
0	5466	-0.08856583386659622
0	4710	-0.14055876433849335
0	4322	-0.07240787148475647
0	5014	0.12996931374073029
0	5460	0.0839281901717186
0	5432	-0.005265533458441496
0	5436	0.0007518325583077967
0	5430	-0.0011269297683611512
0	5486	0.01051458902657032
0	5434	-0.009753292426466942
0	5486	0.009749025106430054
0	5466	-0.003745785914361477
0	5486	0.003743215464055538
0	5460	-0.004863145761191845
0	5496	0.006731320638209581
0	5468	-0.005234427284449339
0	5454	-0.0026158771943300962
0	5514	0.011211739853024483
0	5446	-0.01270394865423441
0	5494	0.008968274109065533
0	5494	0.0
0	5510	0.0029844804666936398
0	5550	0.00745239807292819
0	5554	0.0007435405277647078
0	5572	0.003338237525895238
0	5544	-0.005180963780730963
0	5498	-0.008492620661854744
0	5456	-0.007742601912468672
0	5352	-0.0191502682864666
0	5370	0.0033244681544601917
0	5256	-0.021129369735717773
0	5206	-0.00927930697798729
0	5178	-0.00518051628023386
0	5128	-0.009202341549098492
0	5164	0.0066210548393428326
0	5156	-0.00147402030415833
0	5168	0.0022147849667817354
0	5178	0.001848702086135745
0	5172	-0.0011109465267509222
0	5250	0.014470348134636879
0	5182	-0.012629545293748379
0	5274	0.01711925119161606
0	5268	-0.0011178042041137815
0	5284	0.0029848518315702677
0	5312	0.005229214206337929
0	5300	-0.0022436617873609066
0	5372	0.013476080261170864
0	5378	0.001123581430874765
0	5360	-0.003373608458787203
0	5394	0.006375797092914581
0	5346	-0.009006754495203495
0	5414	0.012771392241120338
0	5316	-0.01841689832508564
0	5354	0.007151729892939329
0	5352	-0.00037687967414967716
0	5302	-0.00943503063172102
0	5366	0.012095249257981777
0	5334	-0.006052658427506685
0	5366	0.006057317368686199
0	5328	-0.0071924286894500256
0	5344	0.00302919396199286
0	5340	-0.0007568781147710979
0	5326	-0.002646836219355464
0	5350	0.004533205647021532
0	5344	-0.0011317196767777205
0	5344	0.0
0	5380	0.00677464297041297
0	5434	0.010148468427360058
0	5472	0.007130080368369818
0	5442	-0.0056184688583016396
0	5542	0.018705807626247406
0	5554	0.0022396696731448174
0	5526	-0.005216808058321476
0	5422	-0.019345717504620552
0	5344	-0.014496883377432823
0	5264	-0.014865651726722717
0	5216	-0.008921380154788494
0	5206	-0.0018604189390316606
0	5230	0.004469773266464472
0	5240	0.0018639096524566412
0	5298	0.010821030475199223
0	5606	0.05748055875301361
0	6252	0.1204160526394844
0	5700	-0.102299265563488
0	5108	-0.10947825014591217
0	4340	-0.1422397792339325
0	4676	0.06260170042514801
0	5206	0.0991716980934143
0	5490	0.05318352207541466
0	5396	-0.017589380964636803
0	5478	0.015337423421442509
0	5438	-0.007475424557924271
0	5486	0.00896503683179617
0	5442	-0.008209771476686
0	5476	0.006340287160128355
0	5476	0.0
0	5438	-0.007074593100696802
0	5496	0.010794178582727909
0	5462	-0.006325189024209976
0	5480	0.0033488371409475803
0	5502	0.004092059098184109
0	5446	-0.010418734513223171
0	5514	0.012659798376262188
0	5496	-0.0033513728994876146
0	5562	0.012282726354897022
0	5558	-0.0007434023427776992
0	5568	0.0018551269313320518
0	5604	0.0066639515571296215
0	5546	-0.010710064321756363
0	5544	-0.00036859564715996385
0	5464	-0.014716343022882938
0	5414	-0.009188361465930939
0	5386	-0.0051515414379537106
0	5236	-0.027744894847273827
0	5216	-0.003709932789206505
0	5164	-0.00963938795030117
0	5110	-0.00995942484587431
0	5176	0.012140237726271152
0	5134	-0.007727027405053377
0	5170	0.006637657526880503
0	5218	0.008862519636750221
0	5182	-0.00665754359215498
0	5234	0.00963165145367384
0	5182	-0.009646659716963768
0	5302	0.022297373041510582
0	5256	-0.008556547574698925
0	5292	0.006705575622618198
0	5312	0.0037286998704075813
0	5304	-0.0014931873884052038
0	5382	0.014572902582585812
0	5342	-0.0074778469279408455
0	5410	0.012725027278065681
0	5344	-0.012353535741567612
0	5366	0.0041222176514565945
0	5398	0.0060008252039551735
0	5322	-0.014266584999859333
0	5378	0.01052776724100113
0	5334	-0.008281677961349487
0	5350	0.0030166292563080788
0	5340	-0.0018877185648307204
0	5332	-0.0015121158212423325
0	5362	0.005675153806805611
0	5298	-0.012110966257750988
0	5338	0.007573558483272791
0	5346	0.001513737253844738
0	5298	-0.00907498225569725
0	5358	0.011334155686199665
0	5294	-0.012070916593074799
0	5340	0.008669540286064148
0	5372	0.006023189518600702
0	5368	-0.0007519456557929516
0	5494	0.023664046078920364
0	5476	-0.0033739879727363586
0	5478	0.00037432153476402164
0	5476	-0.00037363157025538385
0	5512	0.006718089338392019
0	5550	0.007080041337758303
0	5424	-0.02343837358057499
0	5414	-0.0018588973907753825
0	5312	-0.018947837874293327
0	5222	-0.016725929453969002
0	5224	0.00037196383345872164
0	5208	-0.002979146083816886
0	5270	0.011553943157196045
0	5228	-0.007831535302102566
0	5544	0.058985304087400436
0	6174	0.11743507534265518
0	5918	-0.04748478904366493
0	5464	-0.0839083343744278
1	4450	-0.18727606534957886
0	4850	0.074283167719841
0	5366	0.09611205756664276
0	5434	0.012665615417063236
0	5464	0.005583057180047035
0	5422	-0.00781017541885376
0	5460	0.007063021883368492
0	5450	-0.0018568263622000813
0	5432	-0.003340385155752301
0	5482	0.009270933456718922
0	5432	-0.009262804873287678
0	5490	0.010740873403847218
0	5486	-0.0007401924231089652
0	5466	-0.003701144829392433
0	5502	0.0066624716855585575
0	5460	-0.007771732751280069
0	5508	0.008882857859134674
0	5494	-0.00259089726023376
0	5532	0.007034866139292717
0	5562	0.005550142377614975
0	5528	-0.006284425500780344
0	5614	0.015874773263931274
0	5558	-0.010312189348042011
0	5544	-0.0025727725587785244
0	5518	-0.004768192768096924
0	5484	-0.006225889548659325
0	5432	-0.009507093578577042
0	5312	-0.021954432129859924
0	5300	-0.002207045443356037
0	5204	-0.017723513767123222
0	5152	-0.009615621529519558
0	5130	-0.00405062036588788
0	5124	-0.0011028195731341839
0	5152	0.005154133308678865
0	5100	-0.009588552638888359
0	5154	0.009979670867323875
0	5182	0.0051832012832164764
0	5166	-0.002966918982565403
0	5270	0.01931888423860073
0	5258	-0.0022313406225293875
0	5334	0.014151469804346561
0	5312	-0.004098971374332905
0	5356	0.008207015693187714
0	5368	0.002240087604150176
0	5348	-0.0037357574328780174
0	5334	-0.002617540070787072
0	5374	0.007484562695026398
0	5352	-0.004119953140616417
0	5366	0.002624114276841283
0	5320	-0.008631041273474693
0	5342	0.004134146962314844
0	5314	-0.0052677784115076065
0	5336	0.00414677057415247
0	5340	0.000755011395085603
0	5284	-0.010583744384348392
0	5326	0.00794952642172575
0	5308	-0.0034103395882993937
0	5326	0.00341301248408854
0	5352	0.004929470829665661
0	5294	-0.010992898605763912
0	5344	0.009471251629292965
0	5326	-0.0034055220894515514
0	5350	0.0045350901782512665
0	5406	0.010566835291683674
0	5416	0.001883925055153668
0	5450	0.006392659619450569
0	5434	-0.003002739977091551
0	5498	0.011992054991424084
0	5526	0.005235667806118727
0	5446	-0.014935217797756195
0	5416	-0.00559416227042675
0	5312	-0.01938321627676487
0	5276	-0.006709574721753597
0	5214	-0.01156112551689148
0	5182	-0.005972749553620815
0	5218	0.006726290099322796
0	5182	-0.006731153000146151
0	5266	0.01572483964264393
0	5586	0.059936318546533585
0	6242	0.12270091474056244
0	5756	-0.0903838500380516
0	5182	-0.10647638887166977
1	4292	-0.16522890329360962
0	5026	0.1371535360813141
0	5406	0.07114505767822266
0	5488	0.015340675599873066
0	5430	-0.01083977147936821
0	5424	-0.00112050399184227
0	5448	0.004479283466935158
0	5438	-0.0018652540165930986
0	5456	0.0033544539473950863
0	5410	-0.008566533215343952
0	5450	0.00744527718052268
0	5518	0.012649123556911945
0	5444	-0.013755668886005878
0	5482	0.007062497083097696
0	5482	0.0
0	5438	-0.008173576556146145
0	5498	0.011149928905069828
0	5470	-0.005204203072935343
0	5536	0.012265225872397423
0	5502	-0.006313756108283997
0	5538	0.00667730113491416
0	5512	-0.004814696032553911
0	5498	-0.002587768482044339
0	5538	0.007379256654530764
0	5420	-0.021726055070757866
0	5374	-0.008457126095890999
0	5330	-0.008084074594080448
0	5226	-0.01913781650364399
0	5216	-0.0018517146818339825
0	5112	-0.019322235137224197
0	5206	0.017471902072429657
0	5182	-0.004435792099684477
0	5140	-0.007755182217806578
0	5222	0.015165899880230427
0	5182	-0.00741015188395977
0	5208	0.004823986440896988
0	5246	0.00705987261608243
0	5216	-0.005580564960837364
0	5310	0.01750987209379673
0	5268	-0.007830658927559853
0	5362	0.01754124090075493
0	5362	0.0
0	5422	0.011213555932044983
0	5406	-0.002990691689774394
0	5364	-0.007854284718632698
0	5438	0.013848687522113323
0	5336	-0.019088730216026306
0	5398	0.011614691466093063
0	5360	-0.007121884264051914
0	5354	-0.0011257458245381713
0	5380	0.004882751498371363
0	5326	-0.010151139460504055
0	5372	0.008657356724143028
0	5320	-0.009794319048523903
0	5318	-0.00037722091656178236
0	5348	0.005661944393068552
0	5288	-0.011325741186738014
0	5362	0.013972106389701366
0	5304	-0.010941744782030582
0	5356	0.009804414585232735
0	5448	0.017319710925221443
0	5382	-0.012406171299517155
0	5440	0.010888746939599514
0	5464	0.004497245419770479
0	5518	0.010103530250489712
0	5500	-0.003360800677910447
0	5374	-0.023482928052544594
0	5352	-0.004096935968846083
0	5210	-0.026421554386615753
0	5220	0.0018618274480104446
0	5182	-0.007077052723616362
0	5182	0.0
0	5266	0.015679052099585533
0	5246	-0.0037367346230894327
0	5614	0.06882449984550476
0	6164	0.10270263999700546
0	5734	-0.07993357628583908
0	5290	-0.08233301341533661
1	4334	-0.17739401757717133
0	4948	0.11466062813997269
0	5412	0.08686861395835876
0	5406	-0.0011230766540393233
0	5402	-0.0007483442896045744
0	5400	-0.0003741021500900388
0	5444	0.008226144127547741
0	5444	0.0
0	5416	-0.005227586720138788
0	5444	0.005223425570875406
0	5424	-0.0037291168700903654
0	5462	0.007080041337758303
0	5476	0.002606720430776477
0	5442	-0.0063295066356658936
0	5500	0.01079337578266859
0	5478	-0.004092515911906958
0	5466	-0.002232087543234229
0	5536	0.0130247101187706
0	5500	-0.006696926895529032
0	5584	0.015613963827490807
0	5486	-0.01819014362990856
0	5558	0.013341403566300869
0	5510	-0.008875739760696888
0	5484	-0.004797992296516895
0	5472	-0.0022103518713265657
0	5386	-0.01582084409892559
0	5368	-0.0033084992319345474
0	5230	-0.025403447449207306
0	5174	-0.010368065908551216
0	5170	-0.0007431444828398526
0	5114	-0.01041176076978445
0	5182	0.012582030147314072
0	5118	-0.011824844405055046
0	5182	0.01184629462659359
0	5154	-0.005189926363527775
0	5182	0.005197891499847174
0	5182	0.0
0	5214	0.005958144087344408
0	5254	0.007458326872438192
0	5254	0.0
0	5324	0.013080689124763012
0	5300	-0.004487602971494198
0	5356	0.010481657460331917
0	5360	0.0007492507575079799
0	5370	0.0018740864470601082
0	5388	0.003376097185537219
0	5384	-0.0007506661931984127
0	5386	0.00037552573485299945
0	5378	-0.0015035144751891494
0	5384	0.0011284983484074473
0	5354	-0.005649575497955084
0	5372	0.0033925564493983984
0	5346	-0.004906092304736376
0	5366	0.003777814097702503
0	5384	0.003402560716494918
0	5346	-0.007187168579548597
0	5358	0.0022702047135680914
0	5324	-0.006432652939110994
0	5404	0.015126686543226242
0	5330	-0.01397192943841219
0	5352	0.004149638582020998
0	5354	0.00037667620927095413
0	5326	-0.0052677784115076065
0	5382	0.01052183285355568
0	5316	-0.012385218404233456
0	5402	0.01612197607755661
0	5434	0.005990639794617891
0	5444	0.0018691355362534523
0	5436	-0.0014931687619537115
0	5472	0.006711659952998161
0	5508	0.006702579092234373
0	5448	-0.011158223263919353
0	5368	-0.014863994903862476
0	5308	-0.011147167533636093
0	5248	-0.01115075871348381
0	5182	-0.012275110930204391
0	5174	-0.0014897949295118451
0	5222	0.008950436487793922
0	5210	-0.002239892492070794
0	5244	0.0063530029729008675
0	5618	0.06994401663541794
0	5972	0.06609492748975754
0	5502	-0.08742668479681015
0	4738	-0.14197753369808197
0	4390	-0.06492295116186142
0	4958	0.1066252812743187
0	5356	0.07489462196826935
0	5438	0.015430742874741554
0	5446	0.0015043626772239804
0	5414	-0.006015866994857788
0	5462	0.009019052609801292
0	5408	-0.010139448568224907
0	5478	0.013139288872480392
0	5454	-0.0045006186701357365
0	5456	0.00037488286034204066
0	5484	0.005243773106485605
0	5456	-0.005241090431809425
0	5488	0.00598899507895112
0	5478	-0.001871047425083816
0	5514	0.006734006572514772
0	5462	-0.00972435250878334
0	5454	-0.0014964832225814462
0	5542	0.01646069996058941
0	5514	-0.005231819581240416
0	5552	0.0070912279188632965
0	5566	0.0026076266076415777
0	5552	-0.0026014246977865696
0	5580	0.005190696567296982
0	5456	-0.0229366272687912
0	5470	0.002585697453469038
0	5354	-0.021394584327936172
0	5288	-0.012192568741738796
0	5252	-0.006678622215986252
0	5138	-0.02118171751499176
0	5178	0.007413814309984446
0	5130	-0.008853474631905556
0	5170	0.0073701017536222935
0	5212	0.00774745736271143
0	5170	-0.007758238352835178
0	5222	0.009621789678931236
0	5202	-0.003705075941979885
0	5278	0.014101929031312466
0	5278	0.0
0	5282	0.0007437248132191598
0	5326	0.008189703337848186
0	5292	-0.006333515513688326
0	5358	0.012309146113693714
0	5366	0.0014929272001609206
0	5400	0.006349759642034769
0	5368	-0.005979148205369711
0	5350	-0.003366331569850445
0	5416	0.012351839803159237
0	5356	-0.011231607757508755
0	5378	0.004123041406273842
0	5378	0.0
0	5320	-0.010890928097069263
0	5334	0.002632898511365056
0	5348	0.0026365015655755997
0	5358	0.0018859620904549956
0	5388	0.0056613739579916
0	5334	-0.010195733048021793
0	5392	0.010952351614832878
0	5336	-0.010567765682935715
0	5328	-0.0015088836662471294
0	5354	0.0048980205319821835
0	5316	-0.007150742691010237
0	5360	0.008270158432424068
0	5362	0.00037546936073340476
0	5366	0.0007502344669774175
0	5388	0.004121239297091961
0	5324	-0.011976645328104496
0	5422	0.01832529343664646
0	5436	0.002615551231428981
0	5420	-0.0029862632509320974
0	5472	0.009697029367089272
0	5454	-0.003353620646521449
0	5524	0.013028750196099281
0	5446	-0.014502814039587975
0	5388	-0.010778799653053284
0	5292	-0.017842097207903862
0	5280	-0.002231312682852149
0	5180	-0.018602345138788223
0	5216	0.006706658285111189
0	5220	0.0007458326872438192
0	5218	-0.0003732829063665122
0	5302	0.015693504363298416
0	5734	0.080718494951725
0	6138	0.07529914379119873
0	5610	-0.09793011099100113
0	4892	-0.13296295702457428
0	4308	-0.10848028212785721
0	4654	0.0646817609667778
0	5208	0.10404407232999802
0	5464	0.04811668395996094
0	5446	-0.003380324225872755
0	5486	0.007507507689297199
0	5464	-0.004124742466956377
0	5448	-0.0029978640377521515
0	5492	0.008239700458943844
0	5436	-0.010478649288415909
0	5474	0.0071083842776715755
0	5444	-0.005606638267636299
0	5480	0.006727044004946947
0	5496	0.0029889780562371016
0	5444	-0.009709584526717663
0	5518	0.013819892890751362
0	5480	-0.007093875668942928
0	5510	0.005601962096989155
0	5518	0.0014932616613805294
0	5532	0.0026110957842320204
0	5614	0.01527077704668045
0	5536	-0.014495805837213993
0	5604	0.01260956097394228
0	5560	-0.008139606565237045
0	5574	0.0025844562333077192
0	5512	-0.011420431546866894
0	5422	-0.016556696966290474
0	5390	-0.00589811010286212
0	5256	-0.0248123649507761
0	5258	0.0003711447352543473
0	5134	-0.022958995774388313
0	5152	0.0033158534206449986
0	5132	-0.0036730493884533644
0	5096	-0.006614566780626774
0	5180	0.015468853525817394
0	5136	-0.008115984499454498
0	5202	0.012200231663882732
0	5182	-0.0037030179519206285
0	5182	0.0
0	5278	0.017837898805737495
0	5216	-0.011531594209372997
0	5294	0.014530732296407223
0	5290	-0.0007458605105057359
0	5312	0.004107082728296518
0	5322	0.00186899583786726
0	5316	-0.0011222504545003176
0	5346	0.005618328228592873
0	5350	0.0007497375481761992
0	5312	-0.007129634264856577
0	5336	0.004508735612034798
0	5324	-0.0022571382578462362
0	5316	-0.0015074998373165727
0	5336	0.00377396447584033
0	5312	-0.004536404740065336
0	5348	0.006815256085246801
0	5296	-0.009858318604528904
0	5368	0.013668636791408062
0	5372	0.0007596282521262765
0	5350	-0.0041784318163990974
0	5392	0.007972261868417263
0	5336	-0.010620676912367344
0	5394	0.010985957458615303
0	5332	-0.011725694872438908
0	5350	0.0033999469596892595
0	5350	0.0
0	5358	0.001507064327597618
0	5368	0.0018812079215422273
0	5352	-0.003006802871823311
0	5394	0.007884461432695389
0	5470	0.014248219318687916
0	5474	0.0007490075659006834
0	5506	0.005982426460832357
0	5490	-0.0029872667510062456
0	5586	0.01790131814777851
0	5534	-0.009680061601102352
0	5462	-0.01338555384427309
0	5370	-0.017088303342461586
0	5230	-0.026000073179602623
0	5228	-0.0003717057406902313
0	5242	0.002603295026347041
0	5258	0.00297692883759737
0	5290	0.005956295412033796
0	5292	0.00037232853355817497
0	5800	0.09459728002548218
0	6174	0.06943412870168686
0	5596	-0.10676156729459763
0	4810	-0.14491328597068787
0	4206	-0.11174148321151733
0	4910	0.13118501007556915
0	5344	0.08109421283006668
0	5452	0.020186159759759903
0	5462	0.0018677391344681382
0	5448	-0.002613728167489171
0	5452	0.0007462407811544836
0	5470	0.003355955006554723
0	5434	-0.006706907879561186
0	5474	0.007448604796081781
0	5440	-0.006327151320874691
0	5474	0.006323698908090591
0	5462	-0.002230787416920066
0	5470	0.0014872653409838676
0	5502	0.00594920851290226
0	5454	-0.008924034424126148
0	5530	0.014132874086499214
0	5524	-0.0011161406291648746
0	5516	-0.0014882797840982676
0	5564	0.008926689624786377
0	5554	-0.0018574930727481842
0	5534	-0.003707548603415489
0	5586	0.009621432982385159
0	5484	-0.01883285492658615
0	5474	-0.0018437937833368778
0	5390	-0.015470372512936592
0	5348	-0.007730535697191954
0	5298	-0.00922861136496067
0	5204	-0.01744380220770836
0	5208	0.0007440937915816903
0	5106	-0.01892768032848835
0	5180	0.013655824586749077
0	5152	-0.005158501211553812
0	5152	0.0
0	5182	0.0055437153205275536
0	5118	-0.011847024783492088
0	5242	0.02300044521689415
0	5218	-0.00445748632773757
0	5224	0.0011161130387336016
0	5270	0.008568023331463337
0	5248	-0.004102946724742651
0	5324	0.014190752990543842
0	5352	0.005233057774603367
0	5366	0.002618323313072324
0	5400	0.006362910382449627
0	5360	-0.007490542717278004
0	5394	0.006370699964463711
0	5382	-0.0022503938525915146
0	5356	-0.00488018523901701
0	5402	0.008642825298011303
0	5328	-0.013917798176407814
0	5370	0.007910498417913914
0	5312	-0.010935281403362751
0	5380	0.01284278929233551
0	5362	-0.0034017888829112053
0	5368	0.0011347302934154868
0	5368	0.0
0	5342	-0.004917226731777191
0	5384	0.007941009476780891
0	5348	-0.006798866670578718
0	5370	0.004151204600930214
0	5334	-0.006781619042158127
0	5402	0.012797350063920021
0	5446	0.00826767273247242
0	5434	-0.0022506751120090485
0	5454	0.003745224792510271
0	5436	-0.003363647498190403
0	5516	0.01493150182068348
0	5478	-0.007079338189214468
0	5304	-0.0323648676276207
0	5336	0.005950904916971922
0	5182	-0.02862311713397503
0	5208	0.0048367297276854515
0	5182	-0.004841051995754242
0	5182	0.0
0	5278	0.01791936159133911
0	5236	-0.007843722589313984
0	5550	0.058698900043964386
0	6158	0.1135401651263237
0	5704	-0.08436048775911331
0	5168	-0.09941144287586212
1	4340	-0.15372048318386078
0	4922	0.10874303430318832
0	5368	0.08353519439697266
0	5420	0.009740260429680347
0	5458	0.0071153054013848305
0	5392	-0.012351223267614841
0	5426	0.006361799314618111
0	5446	0.0037402750458568335
0	5396	-0.00934707559645176
0	5438	0.007849195972084999
0	5410	-0.005230581387877464
0	5484	0.013817140832543373
0	5432	-0.009704389609396458
0	5444	0.0022396696731448174
0	5444	0.0
0	5408	-0.006719009019434452
0	5502	0.017547134310007095
0	5472	-0.005600637290626764
0	5486	0.002613728167489171
0	5512	0.004848575219511986
0	5522	0.0018627987010404468
0	5572	0.009294371120631695
0	5510	-0.011499084532260895
0	5556	0.008514313958585262
0	5470	-0.01588141918182373
0	5404	-0.012173677794635296
0	5368	-0.006633336190134287
0	5244	-0.02287372574210167
0	5290	0.008533372543752193
0	5182	-0.020086297765374184
0	5218	0.006694851443171501
0	5136	-0.015166835859417915
0	5166	0.005541530903428793
0	5204	0.007028013933449984
0	5130	-0.01370438002049923
0	5204	0.01373218558728695
0	5242	0.00705987261608243
0	5182	-0.011159883812069893
0	5298	0.021611148491501808
0	5216	-0.015286148525774479
0	5282	0.012320482172071934
0	5310	0.005231037735939026
0	5348	0.007106965873390436
0	5394	0.00860767625272274
0	5366	-0.005241090431809425
0	5394	0.005243642255663872
0	5386	-0.001498314319178462
0	5338	-0.008996400982141495
0	5418	0.015006565488874912
0	5336	-0.015388271771371365
0	5388	0.009769171476364136
0	5348	-0.007521058898419142
0	5318	-0.005648724734783173
0	5328	0.0018851800123229623
0	5292	-0.0067963856272399426
0	5354	0.01171801146119833
0	5336	-0.003403075272217393
0	5336	0.0
0	5338	0.00037797653931193054
0	5320	-0.0034007609356194735
0	5380	0.011326026171445847
0	5300	-0.01508599054068327
0	5350	0.009419034235179424
0	5350	0.0
0	5366	0.00300785806030035
0	5382	0.0030034163501113653
0	5420	0.007125177886337042
0	5452	0.005993482191115618
0	5422	-0.0056094336323440075
0	5464	0.007847142405807972
0	5540	0.014177693985402584
0	5462	-0.014527484774589539
0	5394	-0.012653045356273651
0	5316	-0.014509648084640503
0	5248	-0.012655558064579964
0	5206	-0.007822394371032715
0	5182	-0.004475162830203772
0	5248	0.012322322465479374
0	5182	-0.012329228222370148
0	5276	0.017585651949048042
0	5648	0.06962033361196518
0	6140	0.09192939847707748
0	5496	-0.11973969638347626
0	4820	-0.1255509853363037
0	4382	-0.08160476386547089
0	4768	0.07232527434825897
0	5280	0.09628645330667496
0	5460	0.03386259078979492
0	5404	-0.01052684336900711
0	5428	0.004509639460593462
0	5464	0.006759886629879475
0	5410	-0.010134500451385975
0	5504	0.017629407346248627
0	5442	-0.011616723611950874
0	5498	0.010486498475074768
0	5452	-0.008606817573308945
0	5488	0.006732831709086895
0	5514	0.004860539920628071
0	5452	-0.011586042121052742
0	5488	0.006726122461259365
0	5446	-0.007845969870686531
0	5520	0.01383194886147976
0	5490	-0.0056055206805467606
0	5528	0.007096083369106054
0	5554	0.004848816432058811
0	5534	-0.003722777124494314
0	5580	0.008544997312128544
0	5518	-0.011488857679069042
0	5542	0.004439895041286945
0	5476	-0.01218266598880291
0	5476	0.0
0	5362	-0.021039161831140518
0	5372	0.0018544159829616547
0	5262	-0.02041422389447689
0	5222	-0.007403112016618252
0	5160	-0.011415665037930012
0	5154	-0.0011020902311429381
0	5152	-0.0003676470660138875
0	5104	-0.008840212598443031
0	5180	0.014022829942405224
0	5136	-0.008130881935358047
0	5212	0.014072684571146965
0	5162	-0.009269673377275467
0	5230	0.012633456848561764
0	5266	0.006697092670947313
0	5248	-0.0033533708192408085
0	5310	0.011565150693058968
0	5298	-0.0022408964578062296
0	5350	0.009723625145852566
0	5330	-0.0037422350142151117
0	5362	0.005993482191115618
0	5380	0.003373102517798543
0	5360	-0.003751172451302409
0	5382	0.0041296458803117275
0	5330	-0.009769906289875507
0	5374	0.008278457447886467
0	5344	-0.005650072358548641
0	5346	0.0003772303753066808
0	5350	0.0007552774623036385
0	5326	-0.004537147935479879
0	5382	0.010596695356070995
0	5322	-0.01136033795773983
0	5382	0.011363205499947071
0	5328	-0.010226240381598473
0	5342	0.00265014311298728
0	5370	0.0052962759509682655
0	5324	-0.008689519949257374
0	5362	0.007170623168349266
0	5348	-0.002638323698192835
0	5364	0.0030106124468147755
0	5388	0.004510713275521994
0	5336	-0.009757805615663528
0	5384	0.009000224992632866
0	5342	-0.007864284329116344
0	5442	0.018711406737565994
0	5496	0.010093079879879951
0	5422	-0.01380992028862238
0	5488	0.01230838056653738
0	5488	0.0
0	5508	0.003722222987562418
0	5436	-0.013385221362113953
0	5310	-0.02341340109705925
0	5274	-0.006692444905638695
0	5158	-0.021576043218374252
0	5182	0.004470217041671276
0	5182	0.0
0	5182	0.0
0	5248	0.012331531383097172
0	5368	0.02243465930223465
0	6054	0.12823708355426788
0	5858	-0.03647371008992195
0	5348	-0.09462668746709824
1	4492	-0.15879885852336884
0	4810	0.05931950733065605
0	5318	0.09506818652153015
0	5490	0.03219325840473175
0	5416	-0.013840226456522942
0	5432	0.0029907661955803633
0	5470	0.0070999725721776485
0	5428	-0.007841379381716251
0	5508	0.014930015429854393
0	5476	-0.005967551376670599
0	5464	-0.0022358859423547983
0	5508	0.00819417741149664
0	5472	-0.006697425153106451
0	5514	0.007812208961695433
0	5482	-0.005951495375484228
0	5480	-0.00037183015956543386
0	5482	0.00037184858229011297
0	5526	0.008180973120033741
0	5540	0.0026027467101812363
0	5492	-0.008917954750359058
0	5582	0.01670233905315399
0	5624	0.00777960242703557
0	5610	-0.0025857610162347555
0	5592	-0.0033158129081130028
0	5486	-0.019477415829896927
0	5506	0.0036681541241705418
0	5412	-0.01721317507326603
0	5398	-0.002562975976616144
0	5308	-0.016542496159672737
0	5256	-0.009590202942490578
0	5216	-0.007381254341453314
0	5152	-0.01175764575600624
0	5182	0.005499877966940403
0	5096	-0.01577943004667759
0	5156	0.011035497300326824
0	5182	0.004789683502167463
0	5164	-0.003321033203974366
0	5242	0.014418278820812702
0	5238	-0.0007402472547255456
0	5242	0.0007414821884594858
0	5286	0.0081681152805686
0	5258	-0.005203622858971357
0	5336	0.014518290758132935
0	5298	-0.007078986614942551
0	5356	0.010819281451404095
0	5360	0.000746742298360914
0	5330	-0.00560475280508399
0	5378	0.008976100943982601
0	5334	-0.00823569018393755
0	5398	0.011994602158665657
0	5332	-0.012376701459288597
0	5362	0.005634578876197338
0	5342	-0.0037625576369464397
0	5322	-0.0037688915617763996
0	5344	0.004152823705226183
0	5312	-0.006045872811228037
0	5278	-0.006431598216295242
0	5352	0.014010022394359112
0	5318	-0.00643890630453825
0	5314	-0.0007574705523438752
0	5358	0.008329126983880997
0	5312	-0.008699928410351276
0	5370	0.010958421044051647
0	5356	-0.0026420080102980137
0	5350	-0.0011304402723908424
0	5370	0.0037635487969964743
0	5342	-0.0052627623081207275
0	5470	0.024031540378928185
0	5422	-0.008998988196253777
0	5524	0.019100883975625038
0	5474	-0.009346726350486279
0	5530	0.01045608427375555
0	5560	0.00559200718998909
0	5458	-0.018986400216817856
0	5440	-0.0033472180366516113
0	5306	-0.024905212223529816
0	5242	-0.011899006552994251
0	5224	-0.0033484220039099455
0	5242	0.0033516224939376116
0	5228	-0.0026083067059516907
0	5220	-0.001492036273702979
0	5348	0.02388921193778515
0	5990	0.11982977390289307
0	5990	0.0
0	5414	-0.10663770139217377
1	4408	-0.18616530299186707
0	4826	0.07778674364089966
0	5348	0.09741350263357162
0	5468	0.022394465282559395
0	5474	0.0011186794145032763
0	5466	-0.001490090973675251
0	5452	-0.002605911809951067
0	5502	0.009298750199377537
0	5472	-0.0055746883153915405
0	5460	-0.002228274242952466
0	5492	0.005938021931797266
0	5446	-0.00852946937084198
0	5500	0.01000642403960228
0	5426	-0.013709967024624348
0	5490	0.011856975965201855
0	5486	-0.0007412165869027376
0	5490	0.0007411616970784962
0	5532	0.00778412027284503
0	5518	-0.002595155732706189
0	5550	0.005929586477577686
0	5574	0.00444416981190443
0	5568	-0.0011092076310887933
0	5608	0.007379892282187939
0	5518	-0.016565637663006783
0	5532	0.002572520636022091
0	5432	-0.01834099553525448
0	5356	-0.013921113684773445
0	5350	-0.0010989815928041935
0	5244	-0.01949150487780571
0	5182	-0.011453061364591122
0	5128	-0.009989517740905285
0	5166	0.00699858833104372
0	5126	-0.007351589854806662
0	5134	0.001472320407629013
0	5156	0.004057194106280804
0	5152	-0.0007391165127046406
0	5226	0.013700151816010475
0	5226	0.0
0	5262	0.006685650907456875
0	5322	0.011157255619764328
0	5296	-0.0048389495350420475
0	5392	0.017888642847537994
0	5338	-0.01006573811173439
0	5394	0.0104490602388978
0	5342	-0.009704630821943283
0	5380	0.007098380941897631
0	5400	0.0037384575698524714
0	5364	-0.006732999347150326
0	5394	0.005616715177893639
0	5354	-0.00749475322663784
0	5318	-0.006753545720130205
0	5382	0.012025554664433002
0	5296	-0.016178186982870102
0	5380	0.015832925215363503
0	5336	-0.00830063410103321
0	5320	-0.0030221370980143547
0	5350	0.005670506041496992
0	5298	-0.009829248301684856
0	5332	0.006428922526538372
0	5340	0.001511849113740027
0	5278	-0.011705180630087852
0	5348	0.013203063979744911
0	5332	-0.0030143936164677143
0	5366	0.006397310644388199
0	5400	0.006388015579432249
0	5436	0.006753460969775915
0	5444	0.0014981086133047938
0	5396	-0.008976436220109463
0	5518	0.022790959104895592
0	5496	-0.004103303886950016
0	5390	-0.019749099388718605
0	5382	-0.0014896284556016326
0	5222	-0.029794419184327126
0	5218	-0.0007453971775248647
0	5170	-0.008954555727541447
0	5214	0.008217131718993187
0	5238	0.004486707970499992
0	5240	0.0003742701665032655
0	5342	0.0191025547683239
0	5884	0.10153868794441223
0	5982	0.018298830837011337
0	5502	-0.08925804495811462
1	4532	-0.18024156987667084
0	4814	0.05264926329255104
0	5154	0.06370221823453903
0	5438	0.05327064171433449
0	5452	0.0026240814477205276
0	5396	-0.010489641688764095
0	5460	0.011980830691754818
0	5434	-0.004863327834755182
0	5418	-0.0029910642188042402
0	5468	0.009338928386569023
0	5424	-0.00821212213486433
0	5476	0.009699682705104351
0	5468	-0.0014912390615791082
0	5450	-0.0033538707066327333
0	5494	0.008197637274861336
0	5458	-0.00670507550239563
0	5518	0.011170826852321625
0	5502	-0.002978887176141143
0	5470	-0.00595755223184824
0	5522	0.009676218964159489
0	5468	-0.010039662942290306
0	5556	0.016336027532815933
0	5532	-0.0044459812343120575
0	5494	-0.0070237694308161736
0	5492	-0.000369035464245826
0	5414	-0.014369933865964413
0	5404	-0.001840332755818963
0	5302	-0.018764257431030273
0	5252	-0.009231110103428364
0	5240	-0.0022254642099142075
0	5174	-0.012259909883141518
0	5182	0.0014801658689975739
0	5134	-0.008860883302986622
0	5182	0.008861974813044071
0	5214	0.005917305592447519
0	5180	-0.006296374369412661
0	5266	0.015947386622428894
0	5228	-0.0070549794472754
0	5262	0.0063204076141119
0	5340	0.014513787813484669
0	5294	-0.008566214703023434
0	5374	0.014909795485436916
0	5314	-0.011189436540007591
0	5416	0.019040269777178764
0	5382	-0.006348100025206804
0	5396	0.00261574680916965
0	5388	-0.0014952898491173983
0	5334	-0.010101388208568096
0	5394	0.011235534213483334
0	5330	-0.01199025847017765
0	5312	-0.003376308362931013
0	5354	0.007885743863880634
0	5280	-0.013911517336964607
0	5310	0.005648724734783173
0	5252	-0.010933494195342064
0	5334	0.015481045469641685
0	5314	-0.003777766600251198
0	5330	0.003023926867172122
0	5322	-0.0015116967260837555
0	5272	-0.009443940594792366
0	5376	0.01963943988084793
0	5406	0.005658028647303581
0	5412	0.0011300144251435995
0	5438	0.004888198338449001
0	5406	-0.006006607320159674
0	5510	0.019498050212860107
0	5430	-0.014967632479965687
0	5374	-0.010466637089848518
0	5326	-0.008963250555098057
0	5182	-0.026879044249653816
0	5214	0.005978998728096485
0	5176	-0.007103600539267063
0	5230	0.010107059963047504
0	5248	0.003370786551386118
0	5222	-0.004874025471508503
0	5678	0.08556845039129257
0	6130	0.08466850221157074
0	5594	-0.09994032979011536
0	4852	-0.13812702894210815
0	4250	-0.11244349926710129
0	4902	0.12260709702968597
0	5182	0.05278902128338814
0	5492	0.05850822851061821
0	5448	-0.008293332532048225
0	5438	-0.0018832155037671328
0	5466	0.005266854073852301
0	5410	-0.010524997487664223
0	5498	0.01652934029698372
0	5448	-0.009381801821291447
0	5456	0.0014999062987044454
0	5472	0.002996366936713457
0	5410	-0.01160396821796894
0	5482	0.013475239276885986
0	5480	-0.0003741488035302609
0	5494	0.0026183559093624353
0	5504	0.0018692287849262357
0	5442	-0.011589650996029377
0	5544	0.01906542107462883
0	5528	-0.0029874900355935097
0	5546	0.00335670611821115
0	5562	0.0029770026449114084
0	5534	-0.005198534578084946
0	5546	0.00222301809117198
0	5464	-0.015161039307713509
0	5442	-0.0040621887892484665
0	5364	-0.014382828958332539
0	5282	-0.015149649232625961
0	5262	-0.0037144343368709087
0	5166	-0.01786600425839424
0	5198	0.005943757481873035
0	5166	-0.00590907409787178
0	5130	-0.006636923179030418
0	5182	0.009589731693267822
0	5174	-0.0014781601494178176
0	5212	0.007033129688352346
0	5178	-0.006301586516201496
0	5230	0.009654899127781391
0	5280	0.00929391011595726
0	5268	-0.002233555307611823
0	5308	0.007453508675098419
0	5288	-0.003730183467268944
0	5374	0.01605815812945366
0	5320	-0.010085288435220718
0	5330	0.0018695316975936294
0	5372	0.00785937998443842
0	5334	-0.007116282358765602
0	5350	0.002999512478709221
0	5300	-0.009378869086503983
0	5342	0.007890287786722183
0	5334	-0.0015046645421534777
0	5310	-0.0045200008898973465
0	5342	0.006036217324435711
0	5342	0.0
0	5302	-0.007564106024801731
0	5382	0.015143675729632378
0	5288	-0.017800558358430862
0	5352	0.012125344946980476
0	5346	-0.0011362489312887192
0	5322	-0.0045425863936543465
0	5384	0.011723477393388748
0	5342	-0.007932410575449467
0	5382	0.007546315435320139
0	5454	0.013561876490712166
0	5456	0.0003760764957405627
0	5458	0.0003754129575099796
0	5480	0.004123196005821228
0	5574	0.017584117129445076
0	5462	-0.020906442776322365
0	5364	-0.01827244646847248
0	5324	-0.00745369354262948
0	5208	-0.02161356434226036
0	5236	0.005219660699367523
0	5226	-0.0018657644977793097
0	5206	-0.003733711550012231
0	5272	0.012330763041973114
0	5290	0.003365031210705638
0	6012	0.1350121647119522
0	5914	-0.018250441178679466
0	5414	-0.09276093542575836
1	4502	-0.1691206395626068
0	4932	0.08015110343694687
0	5366	0.0810871422290802
0	5436	0.013076615519821644
0	5382	-0.01008177362382412
0	5426	0.008210691623389721
0	5452	0.004850444383919239
0	5426	-0.004845503251999617
0	5496	0.013039590790867805
0	5476	-0.0037221305537968874
0	5486	0.0018592890119180083
0	5504	0.0033446059096604586
0	5482	-0.004083754029124975
0	5524	0.007791437208652496
0	5454	-0.012980109080672264
0	5518	0.011867675930261612
0	5498	-0.0037072738632559776
0	5496	-0.00037068614619784057
0	5544	0.008900756947696209
0	5516	-0.0051894779317080975
0	5608	0.017035143449902534
0	5550	-0.010720754973590374
0	5582	0.0059024617075920105
0	5546	-0.006626173388212919
0	5440	-0.019472170621156693
0	5402	-0.0069706011563539505
0	5362	-0.00733164744451642
0	5270	-0.016855372115969658
0	5226	-0.008097960613667965
0	5130	-0.017743168398737907
0	5162	0.0059247552417218685
0	5136	-0.00479433499276638
0	5114	-0.004051664844155312
0	5140	0.0047957501374185085
0	5134	-0.0011087293969467282
0	5182	0.008883405476808548
0	5182	0.0
0	5224	0.0077977050095796585
0	5278	0.010038170032203197
0	5246	-0.005956591106951237
0	5330	0.01565839909017086
0	5290	-0.007463614456355572
0	5368	0.014573445543646812
0	5352	-0.0029915489722043276
0	5344	-0.0014973796205595136
0	5388	0.008241243660449982
0	5364	-0.004498875234276056
0	5386	0.00412742467597127
0	5364	-0.004130266141146421
0	5376	0.002255412982776761
0	5366	-0.0018811607733368874
0	5340	-0.00489845173433423
0	5376	0.006791427731513977
0	5338	-0.007178028114140034
0	5346	0.0015131453983485699
0	5372	0.004920639097690582
0	5322	-0.009464558213949203
0	5354	0.006058846600353718
0	5342	-0.002270863391458988
0	5318	-0.004538406152278185
0	5356	0.0071773044764995575
0	5314	-0.007923133671283722
0	5384	0.013190457597374916
0	5338	-0.008653339929878712
0	5460	0.02292170189321041
0	5474	0.002624999964609742
0	5460	-0.002620218088850379
0	5546	0.016067758202552795
0	5512	-0.006339656189084053
0	5582	0.013033278286457062
0	5414	-0.031214773654937744
0	5326	-0.01634209416806698
0	5264	-0.01151118241250515
0	5202	-0.011518596671521664
0	5228	0.004834870342165232
0	5248	0.003721807152032852
0	5218	-0.005587562918663025
0	5262	0.008202527649700642
0	5604	0.06380517035722733
0	6174	0.1061834767460823
0	5550	-0.11566980183124542
1	4738	-0.15034809708595276
0	4674	-0.011894289404153824
0	5206	0.09930313378572464
0	5466	0.048571500927209854
0	5396	-0.013067178428173065
0	5446	0.009332304820418358
0	5412	-0.00634107505902648
0	5458	0.008576009422540665
0	5458	0.0
0	5460	0.0003722777182701975
0	5458	-0.00037203766987659037
0	5422	-0.006690703332424164
0	5468	0.008547220379114151
0	5454	-0.002599234925583005
0	5464	0.0018566654762253165
0	5512	0.008912545628845692
0	5464	-0.00890967808663845
0	5540	0.01411415170878172
0	5512	-0.005199049133807421
0	5552	0.007430432830005884
0	5558	0.0011136132525280118
0	5550	-0.0014826895203441381
0	5610	0.011100558564066887
0	5528	-0.015132687985897064
0	5544	0.00294728041626513
0	5472	-0.013238701038062572
0	5438	-0.006241891533136368
0	5380	-0.01063647773116827
0	5294	-0.015792952850461006
0	5238	-0.010339479893445969
0	5152	-0.01590903475880623
0	5154	0.000369035464245826
0	5076	-0.014350018464028835
0	5114	0.006996612064540386
0	5138	0.004428479820489883
0	5152	0.002587385941296816
0	5214	0.011479213833808899
0	5178	-0.00667350459843874
0	5222	0.008170642890036106
0	5284	0.011530021205544472
0	5238	-0.008563875220716
0	5310	0.013422651216387749
0	5298	-0.0022386666387319565
0	5332	0.006349601782858372
0	5322	-0.0018689492717385292
0	5388	0.012345986440777779
0	5416	0.005241744220256805
0	5358	-0.010861151851713657
0	5428	0.013123194687068462
0	5368	-0.011254360899329185
0	5386	0.00338019710034132
0	5400	0.0026318759191781282
0	5346	-0.010161072015762329
0	5388	0.0079161636531353
