0	5210	0.005376344081014395
0	5180	-0.005776266101747751
0	5182	0.00038621469866484404
0	5182	0.0
0	5210	0.00544612854719162
0	5182	-0.005465974099934101
0	5220	0.00745020154863596
0	5238	0.0035431673750281334
0	5230	-0.0015808402094990015
0	5256	0.005155184306204319
0	5254	-0.00039753527380526066
0	5290	0.007166365627199411
0	5324	0.006766618229448795
0	5348	0.004766697064042091
0	5308	-0.007915045134723186
0	5432	0.024437028914690018
0	5454	0.0043124849908053875
0	5402	-0.010136584751307964
0	5378	-0.004655252676457167
0	5284	-0.01814858615398407
0	5118	-0.03193331137299538
0	5110	-0.0015361179830506444
0	5152	0.00805214699357748
0	5152	0.0
0	5142	-0.001912655308842659
0	5182	0.007644188590347767
0	5180	-0.0003819466510321945
0	5264	0.01603890024125576
0	5270	0.0011449216399341822
0	5288	0.0034325814340263605
0	5784	0.09452300518751144
0	7304	0.2886148989200592
0	7372	0.012740444391965866
1	4606	-0.5112438797950745
0	2604	-0.37135049700737
0	4052	0.2729877829551697
0	5324	0.24152204394340515
0	5622	0.05654577165842056
0	5654	0.006057317368686199
0	5676	0.004153294488787651
0	5662	-0.002636038465425372
0	5618	-0.008263531140983105
0	5612	-0.0011245361529290676
0	5606	-0.0011225164635106921
0	5602	-0.0007471421849913895
0	5606	0.000745777040719986
0	5604	-0.0003724857233464718
0	5612	0.001488556619733572
0	5570	-0.007804756984114647
0	5628	0.0107651948928833
0	5670	0.007778930012136698
0	5712	0.007752510253340006
0	5782	0.012873169034719467
0	5842	0.010991695336997509
0	5876	0.006202493328601122
0	5906	0.005448469426482916
0	5852	-0.009764447808265686
0	5794	-0.010445431806147099
0	5696	-0.017593201249837875
0	5518	-0.03187374770641327
0	5312	-0.03683702275156975
0	5038	-0.049135055392980576
0	4852	-0.033812444657087326
0	4638	-0.03950574994087219
0	4572	-0.012181616388261318
0	4580	0.0014588956255465746
0	4586	0.001090671052224934
0	4646	0.010955702513456345
0	4678	0.005877958610653877
0	4760	0.015152822248637676
0	4792	0.005946849938482046
0	4886	0.017563527449965477
0	4948	0.011637509800493717
0	4992	0.008293332532048225
0	5004	0.002270577009767294
0	5078	0.014054901897907257
0	5112	0.006479316856712103
0	5152	0.007646623533219099
0	5164	0.0023007311392575502
0	5160	-0.0007689054473303258
0	5168	0.0015424361918121576
0	5166	-0.00038685716572217643
0	5196	0.005823358427733183
0	5170	-0.005066119600087404
0	5176	0.0011742295464500785
0	5210	0.006684491876512766
0	5182	-0.005530099384486675
0	5218	0.007141629233956337
0	5212	-0.0011948224855586886
0	5228	0.003196462756022811
0	5232	0.0008006618591025472
0	5254	0.004405992105603218
0	5332	0.015598752535879612
0	5306	-0.005182999651879072
0	5336	0.0059539563953876495
0	5468	0.026065664365887642
0	5410	-0.011386539787054062
0	5372	-0.007420135661959648
0	5350	-0.004275663755834103
0	5182	-0.03250899910926819
0	5108	-0.01428056787699461
0	5152	0.008473923429846764
0	5152	0.0
0	5192	0.007680392824113369
0	5208	0.0030682296492159367
0	5224	0.0030642340425401926
0	5252	0.005357416346669197
0	5248	-0.0007646623416803777
0	5294	0.008788242004811764
0	5504	0.04008704423904419
0	6538	0.19694986939430237
0	8108	0.29646506905555725
1	5908	-0.4078757166862488
0	2426	-0.6427279710769653
0	3694	0.23807436227798462
0	5178	0.2812381684780121
0	5622	0.08416104316711426
0	5666	0.008317161351442337
0	5682	0.0030159088782966137
0	5700	0.0033829074818640947
0	5660	-0.00749540887773037
0	5642	-0.0033639410976320505
0	5628	-0.0026100899558514357
0	5606	-0.004094039089977741
0	5610	0.0007429880788549781
0	5598	-0.0022251892369240522
0	5594	-0.0007411341648548841
0	5584	-0.001850732252933085
0	5626	0.007762922439724207
0	5692	0.012178170494735241
0	5730	0.006989748682826757
0	5770	0.007329676765948534
0	5818	0.008762535639107227
0	5858	0.007272638846188784
0	5878	0.0036217013839632273
0	5826	-0.009378493763506413
0	5780	-0.008266443386673927
0	5688	-0.016480760648846626
0	5522	-0.029659099876880646
0	5252	-0.04817528650164604
0	5024	-0.0407424159348011
0	4804	-0.03967061638832092
0	4646	-0.029067985713481903
0	4568	-0.014461941085755825
0	4566	-0.000365974148735404
0	4602	0.006552682723850012
0	4656	0.009863493964076042
0	4708	0.009554374031722546
0	4800	0.017003659158945084
0	4842	0.00780495023354888
0	4916	0.013825057074427605
0	4988	0.013514021411538124
0	4998	0.001884658820927143
0	5066	0.012866603210568428
0	5080	0.002658059587702155
0	5134	0.010287020355463028
0	5132	-0.0003821266582235694
0	5138	0.001149763003922999
0	5134	-0.0007686985773034394
0	5170	0.006940159946680069
0	5152	-0.003481759689748287
0	5152	0.0
0	5178	0.005068292375653982
0	5182	0.0007829933892935514
0	5182	0.0
0	5196	0.002765231765806675
0	5202	0.0011900353711098433
0	5208	0.0011946003651246428
0	5254	0.009187871590256691
0	5218	-0.007203361950814724
0	5280	0.01240860391408205
0	5310	0.005993925966322422
0	5370	0.011947590857744217
0	5308	-0.012286797165870667
0	5402	0.018537752330303192
0	5498	0.018828697502613068
0	5434	-0.01247936300933361
0	5406	-0.0054322523064911366
0	5336	-0.01351960375905037
0	5178	-0.03041073866188526
0	5152	-0.004993534181267023
0	5134	-0.0034518467728048563
0	5182	0.009196341969072819
0	5206	0.004592773970216513
0	5196	-0.0019119484350085258
0	5230	0.006495822221040726
0	5208	-0.004200610797852278
0	5250	0.008015471510589123
0	5268	0.003432756057009101
0	5302	0.006478575989603996
0	5726	0.08072397857904434
0	7058	0.2526746988296509
0	7922	0.16194534301757812
1	4978	-0.5425127744674683
0	2808	-0.4003838002681732
0	4110	0.24378979206085205
0	5356	0.23489637672901154
0	5626	0.050851285457611084
0	5686	0.01127071026712656
0	5686	0.0
0	5662	-0.00448302086442709
0	5650	-0.002236191648989916
0	5610	-0.0074382624588906765
0	5638	0.005199049133807421
0	5590	-0.008894489146769047
0	5574	-0.002961390884593129
0	5562	-0.0022200022358447313
0	5606	0.00813358835875988
0	5644	0.007015815936028957
0	5626	-0.003316994057968259
0	5644	0.003307891311123967
0	5698	0.009893855080008507
0	5738	0.007303623948246241
0	5808	0.012738235294818878
0	5824	0.0029010032303631306
0	5812	-0.002167525701224804
0	5738	-0.013319733552634716
0	5656	-0.014712918549776077
0	5570	-0.015393243171274662
0	5434	-0.024299021810293198
0	5214	-0.0392763614654541
0	5032	-0.0325915664434433
0	4866	-0.030090270563960075
0	4732	-0.024746684357523918
0	4704	-0.0051787919364869595
0	4662	-0.007678431924432516
0	4702	0.0072882757522165775
0	4732	0.005488005466759205
0	4786	0.009932557120919228
0	4820	0.006288532633334398
0	4864	0.008181784301996231
0	4938	0.013828673399984837
0	5002	0.012013214640319347
0	5052	0.009421163238584995
0	5080	0.005295341368764639
0	5106	0.004932962357997894
0	5152	0.008753456175327301
0	5176	0.004578929394483566
0	5202	0.004974109120666981
0	5212	0.0019185264827683568
0	5220	0.001538895652629435
0	5194	-0.005015045404434204
0	5182	-0.002322161104530096
0	5156	-0.005049458704888821
0	5176	0.0039006629958748817
0	5224	0.00940119568258524
0	5240	0.003145808121189475
0	5256	0.0031561090145260096
0	5310	0.010679956525564194
0	5436	0.024962687864899635
0	5418	-0.003566051134839654
0	5338	-0.01582779362797737
0	5330	-0.0015795916551724076
0	5202	-0.025196518748998642
0	5118	-0.016484379768371582
0	5096	-0.004305677022784948
0	5092	-0.0007806401117704809
0	5152	0.011679968796670437
0	5172	0.0038827413227409124
0	5180	0.0015492266975343227
0	5204	0.004636904690414667
0	5198	-0.0011566933244466782
0	5240	0.008083348162472248
0	5278	0.007302356418222189
0	5534	0.04912370443344116
0	6414	0.16837377846240997
0	8030	0.3066374659538269
1	6266	-0.32873648405075073
0	2892	-0.6245449185371399
0	3452	0.10515773296356201
0	4826	0.2608860731124878
0	5494	0.12715251743793488
0	5622	0.024318266659975052
0	5630	0.0015156681183725595
0	5646	0.0030222893692553043
0	5646	0.0
0	5642	-0.0007513524033129215
0	5580	-0.011616723611950874
0	5624	0.00822747778147459
0	5586	-0.007091669365763664
0	5560	-0.0048476713709533215
0	5610	0.009314225055277348
0	5614	0.0007438815664499998
0	5610	-0.0007425742805935442
0	5618	0.0014814083697274327
0	5656	0.007015039678663015
0	5694	0.006990948226302862
0	5750	0.010264556854963303
0	5782	0.005844108294695616
0	5780	-0.0003639054484665394
0	5792	0.0021755159832537174
0	5726	-0.011922970414161682
0	5654	-0.012965653091669083
0	5558	-0.01724468357861042
0	5406	-0.027258381247520447
0	5226	-0.03230438008904457
0	5058	-0.0303665678948164
0	4894	-0.030184047296643257
0	4756	-0.02561437338590622
0	4672	-0.015413598157465458
0	4676	0.0007285443716682494
0	4684	0.0014584169257432222
0	4754	0.012824270874261856
0	4800	0.008472287096083164
0	4838	0.007034692447632551
0	4882	0.008186249993741512
0	5010	0.023927917703986168
0	5004	-0.0011260556057095528
0	5090	0.016198500990867615
0	5128	0.007181554567068815
0	5182	0.010234897024929523
0	5228	0.008739487268030643
0	5182	-0.008760681375861168
0	5208	0.004965306259691715
0	5216	0.0015317064244300127
0	5196	-0.0038391156122088432
0	5194	-0.00038504484109580517
0	5182	-0.002317706122994423
0	5168	-0.0027139144949615
0	5182	0.002724725054576993
0	5208	0.00507991062477231
0	5182	-0.005099305417388678
0	5224	0.008266739547252655
0	5212	-0.002368608023971319
0	5262	0.009891718626022339
0	5328	0.01306947972625494
0	5328	0.0
0	5288	-0.007901494391262531
0	5376	0.017338307574391365
0	5408	0.006279270630329847
0	5384	-0.0046868897043168545
0	5390	0.0011663470650091767
0	5320	-0.013545416295528412
0	5200	-0.02313624694943428
0	5116	-0.016153845936059952
0	5166	0.009598280303180218
0	5152	-0.0026826432440429926
0	5164	0.002297324826940894
0	5160	-0.0007649938925169408
0	5214	0.0103228110820055
0	5240	0.004967520013451576
0	5250	0.001909879269078374
0	5276	0.004964990541338921
0	5552	0.05267376825213432
0	6684	0.21556703746318817
0	8092	0.26565033197402954
1	6040	-0.38023000955581665
0	2536	-0.6459065675735474
0	2996	0.08619505167007446
0	4438	0.2739188075065613
0	5470	0.1969641149044037
0	5616	0.0278187096118927
0	5652	0.006840551737695932
0	5660	0.001516012940555811
0	5650	-0.0018896686378866434
0	5632	-0.0033931108191609383
0	5598	-0.006396989803761244
0	5598	0.0
0	5578	-0.0037492970004677773
0	5596	0.003370113205164671
0	5594	-0.0003740181855391711
0	5588	-0.0011205876944586635
0	5622	0.006342179607599974
0	5658	0.006702662445604801
0	5702	0.008168923668563366
0	5718	0.002959784120321274
0	5786	0.012536410242319107
0	5816	0.0055093043483793736
0	5864	0.00877984520047903
0	5838	-0.004735423717647791
0	5836	-0.00036288858973421156
0	5734	-0.018440844491124153
0	5648	-0.01550294365733862
0	5466	-0.03273538127541542
0	5222	-0.04390963539481163
0	4954	-0.048655323684215546
0	4758	-0.0362725630402565
0	4672	-0.016042381525039673
0	4602	-0.012886597774922848
0	4580	-0.004010549280792475
0	4634	0.009835587814450264
0	4654	0.003661394352093339
0	4726	0.013258853927254677
0	4778	0.009630580432713032
0	4842	0.01191791519522667
0	4910	0.0127266151830554
0	4998	0.01654425449669361
0	5004	0.001132274861447513
0	5056	0.00984985288232565
0	5094	0.0072217718698084354
0	5132	0.007244810927659273
0	5144	0.0022945720702409744
0	5152	0.0015340561512857676
0	5182	0.0057700444012880325
0	5200	0.0034726241137832403
0	5182	-0.0034838709980249405
0	5162	-0.00388440047390759
0	5182	0.0039001558907330036
0	5208	0.005091184284538031
0	5212	0.0007866273517720401
0	5210	-0.0003949343226850033
0	5212	0.0003965683572459966
0	5248	0.007162943482398987
0	5234	-0.002792998915538192
0	5310	0.015185422264039516
0	5356	0.00918579287827015
0	5330	-0.005178113933652639
0	5326	-0.0007936192560009658
0	5450	0.02449624612927437
0	5482	0.006286507472395897
0	5398	-0.01640518195927143
0	5426	0.005441330838948488
0	5310	-0.022430485114455223
0	5182	-0.02465806156396866
0	5166	-0.0030742823146283627
0	5156	-0.0019174475455656648
0	5160	0.0007657749229110777
0	5172	0.002294952282682061
0	5174	0.000382082856958732
0	5182	0.00152718392200768
0	5208	0.004960569553077221
0	5280	0.013730325736105442
0	5278	-0.0003810685302596539
0	5430	0.0289380494505167
0	6170	0.14066123962402344
0	8130	0.37028640508651733
1	5910	-0.4117617905139923
0	2374	-0.6528321504592896
0	3710	0.2509957253932953
0	5152	0.2734755277633667
0	5590	0.08309828490018845
0	5670	0.015141382813453674
0	5648	-0.004151883535087109
0	5638	-0.0018824829021468759
0	5638	0.0
0	5656	0.0033729763235896826
0	5634	-0.004114815965294838
0	5602	-0.00597386434674263
0	5590	-0.0022363581229001284
0	5602	0.002234414918348193
0	5572	-0.005581879988312721
0	5624	0.009664827957749367
0	5642	0.0033414189238101244
0	5678	0.006669136695563793
0	5672	-0.001108128810301423
0	5726	0.009942187927663326
0	5800	0.013576985336840153
0	5880	0.01462059561163187
0	5906	0.004731286782771349
0	5896	-0.0018116816645488143
0	5838	-0.010462641716003418
0	5756	-0.01473618671298027
0	5604	-0.027238192036747932
0	5380	-0.04006247967481613
0	5156	-0.040074422955513
0	4948	-0.03743835538625717
0	4702	-0.045139823108911514
0	4612	-0.016637498512864113
0	4556	-0.010211399756371975
0	4576	0.003628271631896496
0	4608	0.005825525149703026
0	4690	0.015017397701740265
0	4740	0.009212061762809753
0	4810	0.01296920794993639
0	4860	0.009311334230005741
0	4906	0.008607999421656132
0	4958	0.009776518680155277
0	5026	0.01283907052129507
0	5096	0.013264778070151806
0	5062	-0.006463059224188328
0	5118	0.010681587271392345
0	5152	0.006504023913294077
0	5182	0.005756169091910124
0	5174	-0.0015395075315609574
0	5182	0.0015445009339600801
0	5158	-0.0046481601893901825
0	5174	0.0031101780477911234
0	5166	-0.0015614224830642343
0	5182	0.0031374190002679825
0	5182	0.0
0	5182	0.0
0	5204	0.004373815841972828
0	5232	0.005587112624198198
0	5230	-0.00040006934432312846
0	5232	0.0004004699003417045
0	5240	0.0016010674880817533
0	5250	0.0019974433816969395
0	5278	0.00557250902056694
0	5358	0.015851419419050217
0	5284	-0.014585304073989391
0	5316	0.006277956068515778
0	5478	0.03163568302989006
0	5430	-0.009325699880719185
0	5356	-0.014313161373138428
0	5362	0.0011564556043595076
0	5260	-0.019596541300415993
0	5090	-0.03258702903985977
0	5140	0.009576342068612576
0	5112	-0.0053588515147566795
0	5134	0.004210096783936024
0	5130	-0.0007651207270100713
0	5182	0.009945807978510857
0	5196	0.0026772054843604565
0	5212	0.003059390466660261
0	5258	0.008793617598712444
0	5334	0.014521553181111813
0	5860	0.10039189457893372
0	7556	0.32229048013687134
0	7138	-0.07824784517288208
1	4228	-0.5381712913513184
0	2654	-0.2928154170513153
0	4188	0.2899189889431
0	5344	0.21988612413406372
0	5606	0.04980041831731796
0	5636	0.005688785575330257
0	5660	0.00453943619504571
0	5626	-0.006413883995264769
0	5598	-0.005269563291221857
0	5588	-0.0018782163970172405
0	5546	-0.007877166382968426
0	5542	-0.0007489795098081231
0	5552	0.0018698113271966577
0	5546	-0.0011213695397600532
0	5526	-0.0037351991049945354
0	5544	0.003358125453814864
0	5546	0.00037270321627147496
0	5604	0.010789225809276104
0	5598	-0.0011125807650387287
0	5664	0.012203841470181942
0	5698	0.006265510339289904
0	5756	0.010651322081685066
0	5782	0.004756503272801638
0	5712	-0.012759286910295486
0	5646	-0.01199258677661419
0	5546	-0.018122946843504906
0	5422	-0.02243342250585556
0	5206	-0.03905684873461723
0	4988	-0.039574481546878815
0	4780	-0.03835515305399895
0	4630	-0.028066761791706085
0	4526	-0.019410952925682068
0	4500	-0.004796870984137058
0	4530	0.005524251144379377
0	4552	0.004071460105478764
0	4584	0.00596088171005249
0	4674	0.016875211149454117
0	4730	0.010565240867435932
0	4798	0.012901920825242996
0	4872	0.014111723750829697
0	4914	0.008045976981520653
0	4978	0.012310218065977097
0	4962	-0.003088723635300994
0	4990	0.005425865761935711
0	5004	0.0027227115351706743
0	5048	0.008586147800087929
0	5068	0.003915426786988974
0	5068	0.0
0	5058	-0.0019707540050148964
0	5084	0.005142201669514179
0	5074	-0.001985361333936453
0	5078	0.0007974375039339066
0	5088	0.002002616645768285
0	5086	-0.00040238749352283776
0	5138	0.010506181977689266
0	5158	0.004054711665958166
0	5230	0.01463533565402031
0	5182	-0.009769599884748459
0	5258	0.015471053309738636
0	5338	0.016255537047982216
0	5328	-0.0020242915488779545
0	5276	-0.010476971045136452
0	5298	0.004410349763929844
0	5166	-0.026321737095713615
0	5070	-0.019062494859099388
0	5080	0.001978891668841243
0	5098	0.003550389315932989
0	5106	0.0015735641354694963
0	5152	0.00902574323117733
0	5160	0.0015660685021430254
0	5216	0.010941917076706886
0	5206	-0.0019500779453665018
0	5216	0.001947192125953734
0	5370	0.02993740141391754
0	6106	0.14272601902484894
0	7844	0.33465123176574707
1	6870	-0.18423707783222198
0	2534	-0.810962438583374
0	3066	0.10109712183475494
0	4012	0.18206779658794403
0	5284	0.2465052604675293
0	5612	0.06347813457250595
0	5676	0.012343456968665123
0	5674	-0.00038428037078119814
0	5690	0.0030627090018242598
0	5682	-0.001525979838334024
0	5674	-0.0015209125122055411
0	5654	-0.0037916130386292934
0	5624	-0.005670506041496992
0	5614	-0.0018858198309317231
0	5624	0.0018825537990778685
0	5656	0.0060130031779408455
0	5668	0.002249521901831031
0	5688	0.003740555141121149
0	5738	0.009321054443717003
0	5750	0.002227805322036147
0	5808	0.010723265819251537
0	5852	0.008099451661109924
0	5886	0.0062301489524543285
0	5868	-0.0032835931051522493
0	5848	-0.0036327969282865524
0	5790	-0.010494951158761978
0	5682	-0.0194737296551466
0	5540	-0.025532832369208336
0	5254	-0.051372937858104706
0	5028	-0.04080355167388916
0	4898	-0.023875698447227478
0	4768	-0.024167461320757866
0	4694	-0.013569018803536892
0	4738	0.007988573983311653
0	4708	-0.005422927904874086
0	4754	0.008344115689396858
0	4836	0.014951862394809723
0	4884	0.008797223679721355
0	4948	0.01178651675581932
0	5000	0.00962036568671465
0	5058	0.010775728151202202
0	5164	0.019768988713622093
0	5196	0.005986231379210949
0	5212	0.0030011252965778112
0	5276	0.012034750543534756
0	5294	0.003392172744497657
0	5296	0.00037776713725179434
0	5260	-0.006815772037953138
0	5254	-0.001139038591645658
0	5250	-0.0007616919465363026
0	5246	-0.0007641171105206013
0	5262	0.0030674452427774668
0	5296	0.006542991381138563
0	5242	-0.010431288741528988
0	5264	0.004266983829438686
0	5274	0.0019468888640403748
0	5254	-0.0039068604819476604
0	5264	0.0019588894210755825
0	5288	0.004709822591394186
0	5288	0.0
0	5360	0.014102347195148468
0	5394	0.006639414932578802
0	5422	0.005445564165711403
0	5382	-0.007742834277451038
0	5490	0.02081914432346821
0	5516	0.004986957181245089
0	5478	-0.007253292482346296
0	5458	-0.0038019923958927393
0	5374	-0.015910496935248375
0	5232	-0.026824168860912323
0	5190	-0.007922335527837276
0	5208	0.003392471233382821
0	5222	0.002637859433889389
0	5242	0.0037677553482353687
0	5234	-0.0015068183420225978
0	5246	0.0022608237341046333
0	5286	0.007538351230323315
0	5306	0.0037694124039262533
0	5354	0.009043976664543152
0	5666	0.05874894931912422
0	6798	0.21259813010692596
0	7638	0.156240314245224
1	4982	-0.4868451654911041
0	2612	-0.43525636196136475
0	3980	0.25534775853157043
0	5346	0.257027804851532
0	5662	0.0594320110976696
0	5702	0.007503845728933811
0	5734	0.005986679345369339
0	5758	0.004477555863559246
0	5678	-0.01488169003278017
0	5696	0.0033417907543480396
0	5634	-0.011489140801131725
0	5660	0.004811725579202175
0	5634	-0.004803488031029701
0	5636	0.000369171699276194
0	5688	0.009591382928192616
0	5714	0.004789507482200861
0	5732	0.003310608444735408
0	5760	0.005138557404279709
0	5774	0.0025610066950321198
0	5858	0.015311515890061855
0	5894	0.006536263972520828
0	5916	0.003978204447776079
0	5934	0.003241724567487836
0	5910	-0.0043042125180363655
0	5846	-0.011432518251240253
0	5772	-0.013174917548894882
0	5590	-0.032313812524080276
0	5342	-0.04397059231996536
0	5096	-0.04369966685771942
0	4872	-0.040196675807237625
0	4734	-0.025180643424391747
0	4636	-0.017908919602632523
0	4612	-0.00433244276791811
0	4674	0.011149742640554905
0	4720	0.008305847644805908
0	4772	0.009442755952477455
0	4802	0.005478584673255682
0	4894	0.01689685694873333
0	4948	0.009970458224415779
0	5036	0.016321483999490738
0	5072	0.006704327184706926
0	5100	0.005232732277363539
0	5134	0.006376275327056646
0	5154	0.003762510372325778
0	5182	0.005283484235405922
0	5216	0.006436143536120653
0	5210	-0.001139370258897543
0	5228	0.003429442411288619
0	5256	0.005352773703634739
0	5216	-0.00767214410007
0	5226	0.001925941207446158
0	5216	-0.0019342360319569707
0	5230	0.002720207441598177
0	5252	0.004294191021472216
0	5236	-0.0031364760361611843
0	5238	0.00039362849202007055
0	5278	0.007900246419012547
0	5254	-0.0047499043866992
0	5290	0.007128995377570391
0	5310	0.003955487627536058
0	5408	0.019326085224747658
0	5352	-0.010994764044880867
0	5364	0.0023450322914868593
0	5474	0.02139134518802166
0	5476	0.00038692704401910305
0	5430	-0.008856145665049553
0	5362	-0.013036642223596573
0	5280	-0.01566459983587265
0	5154	-0.024010976776480675
0	5166	0.002283771289512515
0	5172	0.0011409447761252522
0	5192	0.003800739999860525
0	5212	0.0037985260132700205
0	5216	0.0007593302871100605
0	5260	0.008349357172846794
0	5280	0.0037932908162474632
0	5292	0.0022750538773834705
0	5394	0.01932794228196144
0	5968	0.10865312814712524
0	7586	0.3049033284187317
0	7014	-0.1062091514468193
1	3604	-0.6262395977973938
0	3014	-0.10943218320608139
0	4674	0.3121708929538727
0	5502	0.15627555549144745
0	5664	0.030524568632245064
0	5712	0.009020183235406876
0	5684	-0.005247507244348526
0	5690	0.0011214533587917686
0	5674	-0.002983108162879944
0	5648	-0.004836609587073326
0	5616	-0.005943904630839825
0	5576	-0.007417755667120218
0	5316	-0.04815230891108513
0	5308	-0.0014830561121925712
0	5326	0.0033403439447283745
0	5360	0.0063136001117527485
0	5378	0.0033425355795770884
0	5444	0.01224853377789259
0	5506	0.011485593393445015
0	5626	0.022183606401085854
0	5660	0.006267820484936237
0	5754	0.017278987914323807
0	5730	-0.004397053737193346
0	5766	0.006574941799044609
0	5738	-0.005098138935863972
0	5662	-0.013799447566270828
0	5470	-0.03478386998176575
0	5222	-0.0449085533618927
0	4984	-0.04329266771674156
0	4750	-0.043247371912002563
0	4656	-0.017618613317608833
0	4582	-0.013779404573142529
0	4572	-0.0018441338324919343
0	4630	0.010702686384320259
0	4682	0.009647256694734097
0	4744	0.011572778224945068
0	4830	0.01614983007311821
0	4928	0.01850220374763012
0	4972	0.008347139693796635
0	5030	0.011052110232412815
0	5060	0.005739137064665556
0	5130	0.013438967987895012
0	5168	0.007316321600228548
0	5182	0.002698049880564213
0	5182	0.0
0	5224	0.008108212612569332
0	5242	0.0034779920242726803
0	5228	-0.002707476494833827
0	5242	0.0027112518437206745
0	5200	-0.008147640153765678
0	5206	0.0011671638349071145
0	5216	0.0019510164856910706
0	5232	0.0031325866002589464
0	5246	0.002749950857833028
0	5240	-0.0011825767578557134
0	5270	0.005932292435318232
0	5288	0.003568596439436078
0	5292	0.0007939764182083309
0	5288	-0.0007936088368296623
0	5332	0.008712181821465492
0	5372	0.007889857515692711
0	5358	-0.002748511265963316
0	5320	-0.007422551512718201
0	5506	0.036155350506305695
0	5532	0.005025449674576521
0	5452	-0.015378700569272041
0	5448	-0.0007654623477719724
0	5320	-0.02439861185848713
0	5182	-0.02623940072953701
0	5130	-0.00987416785210371
0	5152	0.004174889996647835
0	5194	0.007965609431266785
0	5182	-0.0022749679628759623
0	5202	0.003791277529671788
0	5220	0.003411718877032399
0	5246	0.004926854744553566
0	5296	0.00947340577840805
0	5302	0.0011364209931343794
0	5632	0.06247396767139435
0	7130	0.2828977108001709
0	7836	0.1317278891801834
1	5172	-0.48905858397483826
0	2422	-0.5049824714660645
0	3880	0.2724181115627289
0	5298	0.2672177851200104
0	5652	0.06668592244386673
0	5706	0.010148086585104465
0	5710	0.0007497469778172672
0	5702	-0.001495587988756597
0	5682	-0.0037293487694114447
0	5646	-0.006698256358504295
0	5666	0.0037149402778595686
0	5604	-0.011494395323097706
0	5626	0.004071510396897793
0	5636	0.0018493176903575659
0	5616	-0.0036962656304240227
0	5658	0.007754323072731495
0	5604	-0.00995697546750307
0	5666	0.011412163265049458
0	5720	0.009910196997225285
0	5744	0.004388691857457161
0	5812	0.012389917857944965
0	5830	0.0032674202229827642
0	5838	0.0014465150889009237
0	5808	-0.005403717514127493
0	5706	-0.0183080043643713
0	5642	-0.011455847881734371
0	5470	-0.030724160373210907
0	5248	-0.03961597755551338
0	5026	-0.03970666974782944
0	4842	-0.0333281010389328
0	4756	-0.015864035114645958
0	4650	-0.019603490829467773
0	4658	0.0014594633830711246
0	4640	-0.00326832989230752
0	4706	0.012031792663037777
0	4752	0.008434279821813107
0	4792	0.007377170026302338
0	4912	0.022257119417190552
0	4932	0.003727726638317108
0	4970	0.0071158381178975105
0	5026	0.010530934669077396
0	5068	0.007930014282464981
0	5116	0.00909355003386736
0	5130	0.0026608549524098635
0	5204	0.014109750278294086
0	5190	-0.0026764206122606993
0	5182	-0.0015339580131694674
0	5170	-0.0023071598261594772
0	5164	-0.0011572586372494698
0	5162	-0.0003871367371175438
0	5182	0.0038859599735587835
0	5226	0.008584137074649334
0	5204	-0.004308993928134441
0	5246	0.008260453119874
0	5318	0.014213144779205322
0	5284	-0.006728942506015301
0	5308	0.004761085845530033
0	5404	0.01906476728618145
0	5426	0.004364502150565386
0	5354	-0.014246141538023949
0	5334	-0.003943943418562412
0	5230	-0.020430881530046463
0	5134	-0.018787918612360954
0	5100	-0.006633456330746412
0	5156	0.01089310459792614
0	5206	0.009697690606117249
0	5152	-0.010442854836583138
0	5192	0.00771753815934062
0	5256	0.012325864285230637
0	5230	-0.004996988922357559
0	5272	0.008058636449277401
0	5270	-0.0003831417707260698
0	5522	0.04821367189288139
0	6370	0.1618238240480423
0	8028	0.3139200210571289
1	5618	-0.448310911655426
0	2800	-0.5228200554847717
0	3278	0.09000866115093231
0	4408	0.2153392732143402
0	5370	0.18420884013175964
0	5588	0.04168844595551491
0	5628	0.007629511412233114
0	5618	-0.0019025150686502457
0	5584	-0.006451612804085016
0	5648	0.012118305079638958
0	5564	-0.01587221585214138
0	5552	-0.002263467526063323
0	5570	0.00339000066742301
0	5554	-0.003010197076946497
0	5548	-0.0011279184836894274
0	5556	0.0015020653372630477
0	5588	0.005999925080686808
0	5568	-0.0037415812257677317
0	5632	0.011940744705498219
0	5688	0.010413696989417076
0	5708	0.0037069530226290226
0	5728	0.0036954914685338736
0	5728	0.0
0	5756	0.005138494540005922
0	5678	-0.014270729385316372
0	5628	-0.009122977964580059
0	5558	-0.012744574807584286
0	5398	-0.029079629108309746
0	5206	-0.0349217914044857
0	5072	-0.024545719847083092
0	4920	-0.02835468389093876
0	4778	-0.02660471387207508
0	4746	-0.005922270007431507
0	4716	-0.005502298939973116
0	4764	0.008787131868302822
0	4788	0.004409872926771641
0	4868	0.014771957881748676
0	4946	0.014470348134636879
0	4970	0.00447099469602108
0	5028	0.010846257209777832
0	5060	0.006007359363138676
0	5132	0.013559321872889996
0	5166	0.0064199394546449184
0	5196	0.005679093301296234
0	5234	0.007209805306047201
0	5182	-0.009885680861771107
0	5204	0.004192339722067118
0	5196	-0.0015282146632671356
0	5172	-0.004595529288053513
0	5166	-0.0011522654676809907
0	5202	0.0069367727264761925
0	5230	0.0054128593765199184
0	5302	0.013963591307401657
0	5286	-0.0031115892343223095
0	5294	0.0015605493681505322
0	5374	0.015644555911421776
0	5368	-0.0011752876453101635
0	5296	-0.014120969921350479
0	5292	-0.000785021809861064
0	5226	-0.012945576570928097
0	5070	-0.03056785650551319
0	5090	0.003915120381861925
0	5128	0.0074236150830984116
0	5152	0.004676964599639177
0	5152	0.0
0	5182	0.005815080367028713
0	5222	0.007733752951025963
0	5228	0.0011574223171919584
0	5252	0.004621309228241444
0	5282	0.00576619990170002
0	5788	0.09709855169057846
0	7056	0.242194265127182
0	7162	0.02000150829553604
1	4358	-0.5225363969802856
0	3006	-0.25326889753341675
0	3710	0.13374030590057373
0	5168	0.2795852720737457
0	5572	0.07748865336179733
0	5660	0.016838237643241882
0	5638	-0.0041964976117014885
0	5630	-0.0015214331215247512
0	5630	0.0
0	5602	-0.005297211464494467
0	5598	-0.0007553155883215368
0	5588	-0.0018845878075808287
0	5550	-0.007148231845349073
0	5576	0.004885504022240639
0	5560	-0.003002552315592766
0	5566	0.001124100643210113
0	5574	0.0014962407294660807
0	5638	0.01194401178508997
0	5652	0.0026035532355308533
0	5712	0.011119347997009754
0	5756	0.008124876767396927
0	5744	-0.0022076680324971676
0	5768	0.004399364348500967
0	5760	-0.001461222767829895
0	5672	-0.01602097414433956
0	5626	-0.008352095261216164
0	5488	-0.024999696761369705
0	5298	-0.03437711298465729
0	5066	-0.042100679129362106
0	4906	-0.02938871458172798
0	4764	-0.026447799056768417
0	4706	-0.010775461792945862
0	4690	-0.0029415730386972427
0	4720	0.005482523236423731
0	4742	0.004031518939882517
0	4796	0.009945971891283989
0	4844	0.008888010866940022
0	4884	0.007443152833729982
0	4944	0.011216630227863789
0	5018	0.01389323454350233
0	5038	0.003768702270463109
0	5138	0.01891002617776394
0	5160	0.004172039683908224
0	5152	-0.0015208546537905931
0	5182	0.005718569736927748
0	5218	0.006878805346786976
0	5210	-0.0015320192323997617
0	5244	0.0065262457355856895
0	5182	-0.011930877342820168
0	5206	0.004632370080798864
0	5196	-0.001936458284035325
0	5200	0.0007773934048600495
0	5214	0.0027304997202008963
0	5220	0.0011744440998882055
0	5226	0.0011785967508330941
0	5220	-0.0011820486979559064
0	5250	0.005926043260842562
0	5334	0.016618963330984116
0	5328	-0.0011867871508002281
0	5336	0.0015796540537849069
0	5392	0.011026371270418167
0	5438	0.00902019813656807
0	5370	-0.013270708732306957
0	5390	0.0038859599735587835
0	5248	-0.027471108362078667
0	5166	-0.01581200584769249
0	5112	-0.010388078168034554
0	5134	0.004224919248372316
0	5114	-0.003834699047729373
0	5158	0.008427181281149387
0	5182	0.004592539742588997
0	5182	0.0
0	5242	0.01146759744733572
0	5234	-0.0015282146632671356
0	5338	0.019856423139572144
0	5736	0.07591363787651062
0	7078	0.2551298439502716
0	7362	0.05336005240678787
1	4500	-0.5306944847106934
0	2770	-0.3221481442451477
0	4126	0.25638115406036377
0	5290	0.2215735912322998
0	5592	0.05745449662208557
0	5598	0.0011387504637241364
0	5604	0.001136033795773983
0	5618	0.002644436666741967
0	5594	-0.004521988332271576
0	5586	-0.001504079787991941
0	5564	-0.004129697568714619
0	5598	0.006372848991304636
0	5578	-0.003742608241736889
0	5564	-0.0026167896576225758
0	5600	0.0067236097529530525
0	5606	0.0011189994402229786
0	5666	0.011174988001585007
0	5644	-0.0040868897922337055
0	5720	0.01407668087631464
0	5770	0.009226340800523758
0	5836	0.012131311930716038
0	5890	0.009881905280053616
0	5846	-0.008016129955649376
0	5850	0.000725812278687954
0	5758	-0.016626505181193352
0	5656	-0.018376613035798073
0	5476	-0.032347336411476135
0	5208	-0.04812180995941162
0	4992	-0.03890770301222801
0	4792	-0.036482591181993484
0	4664	-0.02371951751410961
0	4576	-0.016290664672851562
0	4580	0.0007323235040530562
0	4654	0.013510552234947681
0	4680	0.0047653960064053535
0	4760	0.014744912274181843
0	4816	0.010374853387475014
0	4842	0.004840451292693615
0	4924	0.015339910052716732
0	4986	0.01164712943136692
0	5030	0.008296877145767212
0	5054	0.004540810827165842
0	5108	0.010251997038722038
0	5126	0.003427526680752635
0	5106	-0.0038189804181456566
0	5030	-0.014557899907231331
0	5022	-0.0015380671247839928
0	5040	0.003474992932751775
0	5012	-0.0054266368970274925
0	5020	0.0015575919533148408
0	4966	-0.01056517194956541
0	4974	0.001574142137542367
0	4982	0.0015836566453799605
0	4990	0.0015927371568977833
0	4992	0.0004004699003417045
0	5012	0.004025278612971306
0	5036	0.004851294215768576
0	5098	0.012569775804877281
0	5182	0.01704268902540207
0	5182	0.0
0	5234	0.010509013198316097
0	5378	0.02899056486785412
0	5334	-0.008810807950794697
0	5312	-0.004383343271911144
0	5306	-0.0011902558617293835
0	5168	-0.027263030409812927
0	5082	-0.01694447733461857
0	5082	0.0
0	5116	0.006676791235804558
0	5128	0.002353556454181671
0	5170	0.008229807950556278
0	5182	0.002349225338548422
0	5202	0.003912108018994331
0	5264	0.012120106257498264
0	5278	0.0027343393303453922
0	5328	0.009754574857652187
0	5962	0.12344877421855927
0	7692	0.3348127603530884
0	7152	-0.10275015234947205
1	4380	-0.5203874707221985
0	2548	-0.3453042209148407
0	3874	0.2537863850593567
0	5204	0.25635093450546265
0	5638	0.08353222161531448
0	5710	0.013800505548715591
0	5724	0.002671177964657545
0	5678	-0.008737163618206978
0	5698	0.003783388528972864
0	5662	-0.006784431170672178
0	5662	0.0
0	5642	-0.003746534464880824
0	5636	-0.0011211041128262877
0	5620	-0.002984814578667283
0	5638	0.003351955208927393
0	5656	0.003345186123624444
0	5698	0.0077885473147034645
0	5680	-0.0033270488493144512
0	5740	0.011049452237784863
0	5776	0.006603000219911337
0	5830	0.009864695370197296
0	5886	0.010186510160565376
0	5916	0.005433470010757446
0	5898	-0.0032456994522362947
0	5870	-0.005027832463383675
0	5772	-0.017533814534544945
0	5644	-0.022834038361907005
0	5468	-0.0313379131257534
0	5156	-0.05571693927049637
0	4870	-0.05185668542981148
0	4688	-0.03346121311187744
0	4616	-0.013212463818490505
0	4576	-0.007248565088957548
0	4582	0.0010826936922967434
0	4632	0.009056330658495426
0	4678	0.008382738567888737
0	4780	0.01870507001876831
0	4792	0.002213368657976389
0	4916	0.022996747866272926
0	4938	0.004099888261407614
0	4982	0.008236820809543133
0	5020	0.007143930997699499
0	5066	0.00868175644427538
0	5064	-0.0003788261383306235
0	5094	0.0057024103589355946
0	5126	0.0061036087572574615
0	5166	0.007655307184904814
0	5182	0.003072550753131509
0	5176	-0.0011558912228792906
0	5208	0.006187161430716515
0	5230	0.004269302356988192
0	5196	-0.006623720284551382
0	5206	0.00195692153647542
0	5202	-0.000786410819273442
0	5194	-0.0015800283290445805
0	5164	-0.005951594095677137
0	5224	0.011951238848268986
0	5204	-0.003994886763393879
0	5198	-0.001200576196424663
0	5214	0.0032006402034312487
0	5222	0.001596657675690949
0	5208	-0.002784259617328644
0	5264	0.011093501932919025
0	5310	0.009071309119462967
0	5332	0.00431778933852911
0	5320	-0.0023444215767085552
0	5444	0.02412482723593712
0	5400	-0.008523717522621155
0	5432	0.006174824666231871
0	5444	0.0023078995291143656
0	5346	-0.018786903470754623
0	5206	-0.026776151731610298
0	5182	-0.004584760870784521
0	5230	0.009162752889096737
0	5238	0.0015255141770467162
0	5238	0.0
0	5292	0.010280492715537548
0	5290	-0.00038045475957915187
0	5304	0.0026613606605678797
0	5350	0.008737384341657162
0	5392	0.007970445789396763
0	7020	0.30863338708877563
0	8158	0.21328169107437134
1	5438	-0.5005459189414978
0	2632	-0.5156255960464478
0	3498	0.1616717278957367
0	4992	0.28183361887931824
0	5630	0.12053048610687256
0	5736	0.01997186243534088
0	5762	0.0048822625540196896
0	5752	-0.001871374319307506
0	5746	-0.0011191245866939425
0	5706	-0.0074359579011797905
0	5678	-0.005190952681005001
0	5676	-0.00036994105903431773
0	5634	-0.00775231933221221
0	5642	0.0014737850287929177
0	5656	0.0025759919080883265
0	5648	-0.001469687675125897
0	5630	-0.0033024291042238474
0	5674	0.008063431829214096
0	5712	0.006949948612600565
0	5738	0.0047406041994690895
0	5784	0.008358974941074848
0	5850	0.011953202076256275
0	5828	-0.003969734068959951
0	5818	-0.0017980437260121107
0	5788	-0.005377179477363825
0	5728	-0.010722454637289047
0	5622	-0.018895279616117477
0	5450	-0.030610794201493263
0	5252	-0.03522588312625885
0	5026	-0.04063335433602333
0	4836	-0.0348142646253109
0	4760	-0.013977096416056156
0	4706	-0.009803209453821182
0	4668	-0.006848492193967104
0	4644	-0.00433379877358675
0	4720	0.013805631548166275
0	4720	0.0
0	4774	0.009933044202625751
0	4830	0.010363077744841576
0	4898	0.012655244208872318
0	4954	0.01047446858137846
0	5038	0.015782946720719337
0	5070	0.006036673206835985
0	5070	0.0
0	5106	0.006840118207037449
0	5182	0.014490727335214615
0	5172	-0.0019123383099213243
0	5196	0.0046030511148273945
0	5196	0.0
0	5158	-0.007334774825721979
0	5208	0.009687168523669243
0	5180	-0.005445069633424282
0	5214	0.006640711799263954
0	5182	-0.00627516582608223
0	5182	0.0
0	5208	0.005140303634107113
0	5182	-0.005157979670912027
0	5284	0.020294198766350746
0	5330	0.009162373840808868
0	5288	-0.008361315354704857
0	5374	0.017091073095798492
0	5452	0.015446157194674015
0	5366	-0.016952939331531525
0	5392	0.005103175528347492
0	5334	-0.011330338194966316
0	5220	-0.022170361131429672
0	5106	-0.022098734974861145
0	5100	-0.0011601975420489907
0	5152	0.01003396138548851
0	5182	0.005776859354227781
0	5182	0.0
0	5196	0.002687036758288741
0	5222	0.004985172301530838
0	5230	0.001532410504296422
0	5248	0.0034444048069417477
0	5284	0.006882575340569019
0	5576	0.055789072066545486
0	6590	0.1932360976934433
0	8136	0.292032390832901
1	5550	-0.4796053469181061
0	2656	-0.5354301333427429
0	3540	0.1661674976348877
0	4996	0.2765291929244995
0	5576	0.11030810326337814
0	5620	0.008347351104021072
0	5658	0.007189163006842136
0	5664	0.0011319188633933663
0	5608	-0.010532652027904987
0	5624	0.0030032284557819366
0	5614	-0.0018735714256763458
0	5582	-0.005983246956020594
0	5598	0.002987750107422471
0	5584	-0.0026119076646864414
0	5592	0.0014904980780556798
0	5570	-0.004093784838914871
0	5616	0.008547220379114151
0	5608	-0.0014828360872343183
0	5670	0.011456447653472424
0	5692	0.0040509686805307865
0	5770	0.014315078966319561
0	5782	0.002194426255300641
0	5828	0.008381313644349575
0	5802	-0.00471914978697896
0	5746	-0.010128780268132687
0	5670	-0.013703569769859314
0	5556	-0.020503349602222443
0	5362	-0.03483486548066139
0	5182	-0.03236246109008789
0	4940	-0.04387979581952095
0	4808	-0.02440587803721428
0	4662	-0.027118392288684845
0	4636	-0.004770058672875166
0	4634	-0.0003644846146926284
0	4652	0.0032875912729650736
0	4680	0.005142962094396353
0	4758	0.014409754425287247
0	4810	0.009660040959715843
0	4894	0.015687642619013786
0	4914	0.003751829033717513
0	4986	0.013566816225647926
0	5048	0.011728799901902676
0	5076	0.005314773414283991
0	5092	0.00304707745090127
0	5152	0.011462340131402016
0	5182	0.005747273098677397
0	5178	-0.0007682065479457378
0	5212	0.0065481155179440975
0	5230	0.0034754849039018154
0	5182	-0.009294279851019382
0	5194	0.0023312438279390335
0	5202	0.0015599812613800168
0	5214	0.00234882696531713
0	5222	0.0015721827512606978
0	5202	-0.003945447504520416
0	5212	0.0019798059947788715
0	5258	0.009134717285633087
0	5224	-0.006765092257410288
0	5236	0.0023898668587207794
0	5284	0.009556042030453682
0	5292	0.0015890460927039385
0	5278	-0.002771947765722871
0	5344	0.013014841824769974
0	5354	0.0019628112204372883
0	5366	0.0023443298414349556
0	5348	-0.003500220365822315
0	5468	0.023234201595187187
0	5472	0.0007709406781941652
0	5410	-0.01189897395670414
0	5434	0.004590899683535099
0	5322	-0.021353397518396378
0	5196	-0.02397138625383377
0	5160	-0.006842545233666897
0	5158	-0.0003799392143264413
0	5176	0.0034180241636931896
0	5172	-0.00075944559648633
0	5208	0.0068354434333741665
0	5206	-0.00037967474781908095
0	5240	0.006454715505242348
0	5232	-0.001518660574220121
0	5248	0.0030363602563738823
0	5550	0.05729173496365547
0	6670	0.2120061069726944
0	8130	0.2738492786884308
1	5830	-0.42370277643203735
0	2458	-0.6187988519668579
0	3590	0.21129389107227325
0	5104	0.2855598032474518
0	5556	0.08531735837459564
0	5644	0.016577083617448807
0	5666	0.004134924151003361
0	5652	-0.002625164110213518
0	5652	0.0
0	5624	-0.005228042136877775
0	5608	-0.002982440870255232
0	5604	-0.0007444907678291202
0	5582	-0.0040882062166929245
0	5586	0.000742785690817982
0	5598	0.002226785756647587
0	5598	0.0
0	5620	0.004073571413755417
0	5672	0.009610763750970364
0	5672	0.0
0	5676	0.0007348168874159455
0	5746	0.012818635441362858
0	5850	0.018978795036673546
0	5866	0.0029078221414238214
0	5866	0.0
0	5802	-0.011539154686033726
0	5720	-0.014734773896634579
0	5610	-0.019708551466464996
0	5402	-0.03718668594956398
0	5156	-0.04401922971010208
0	4942	-0.03864210844039917
0	4768	-0.032033972442150116
0	4654	-0.02112545445561409
0	4594	-0.010969857685267925
0	4578	-0.002907505026087165
0	4628	0.009114994667470455
0	4666	0.006966682150959969
0	4756	0.016599245369434357
0	4844	0.016321685165166855
0	4886	0.007829004898667336
0	4962	0.014234520494937897
0	4980	0.0033853251952677965
0	5012	0.0060421437956392765
0	5072	0.011371389962732792
0	5126	0.010267331264913082
0	5138	0.00228830031119287
0	5182	0.008415039628744125
0	5172	-0.0019175945781171322
0	5178	0.0011538609396666288
0	5206	0.005401790142059326
0	5202	-0.0007740037981420755
0	5216	0.0027173210401088
0	5206	-0.001947621931321919
0	5200	-0.0011734793661162257
0	5182	-0.0035357901360839605
0	5220	0.007498026825487614
0	5224	0.0007922988152131438
0	5230	0.0011923529673367739
0	5224	-0.0011953620705753565
0	5242	0.0035903300158679485
0	5252	0.001993487821891904
0	5246	-0.0011936340015381575
0	5256	0.001983103808015585
0	5240	-0.0031603898387402296
0	5278	0.0074741351418197155
0	5350	0.014096824452280998
0	5360	0.0019487099489197135
0	5340	-0.0038799289613962173
0	5446	0.0204862579703331
0	5482	0.0069307186640799046
0	5420	-0.011890758760273457
0	5398	-0.0042069838382303715
0	5342	-0.010680228471755981
0	5246	-0.01827063411474228
0	5114	-0.025094421580433846
0	5110	-0.0007604948477819562
0	5112	0.00038031491567380726
0	5158	0.008751125074923038
0	5116	-0.007990867830812931
0	5156	0.007613344117999077
0	5222	0.012566003017127514
0	5242	0.0038073966279625893
0	5224	-0.003426091745495796
0	5378	0.02930876985192299
0	6040	0.12584753334522247
0	7962	0.36340031027793884
1	6570	-0.2587200105190277
0	2268	-0.7929661273956299
0	3040	0.14493660628795624
0	4668	0.3098788261413574
0	5484	0.15588782727718353
0	5616	0.025179948657751083
0	5622	0.0011418566573411226
0	5652	0.005696058738976717
0	5612	-0.007574992720037699
0	5592	-0.0037795277312397957
0	5580	-0.002264264738187194
0	5564	-0.0030148481018841267
0	5582	0.0033869389444589615
0	5598	0.003008046420291066
0	5556	-0.007890386506915092
0	5590	0.006382020190358162
0	5582	-0.0014998499536886811
0	5614	0.005990415345877409
0	5632	0.0033618886955082417
0	5686	0.010053245350718498
0	5754	0.01261455100029707
0	5778	0.004434589762240648
0	5818	0.007362866774201393
0	5826	0.00146625773049891
0	5796	-0.005476051475852728
0	5734	-0.011277785524725914
0	5608	-0.02285120263695717
0	5410	-0.03582586348056793
0	5180	-0.041607875376939774
0	4950	-0.04182477295398712
0	4738	-0.03926847130060196
0	4604	-0.025104602798819542
0	4552	-0.009602009318768978
0	4522	-0.005488541442900896
0	4588	0.012085550464689732
0	4604	0.002945941872894764
0	4700	0.017786120995879173
0	4762	0.011552651412785053
0	4838	0.014240031130611897
0	4892	0.010167066007852554
0	4936	0.008320831693708897
0	5004	0.012911882251501083
0	5044	0.007622241973876953
0	5110	0.012619824148714542
0	5140	0.005754181183874607
0	5114	-0.005000256467610598
0	5162	0.009259497746825218
0	5172	0.0019342858577147126
0	5166	-0.0011638883734121919
0	5158	-0.0015565413050353527
0	5160	0.00039047247264534235
0	5196	0.007055779453366995
0	5182	-0.0027543874457478523
0	5206	0.004741583485156298
0	5216	0.001983759691938758
0	5182	-0.006770750042051077
0	5222	0.007994882762432098
0	5182	-0.008015496656298637
0	5236	0.010837425477802753
0	5260	0.0048148296773433685
0	5274	0.002802840434014797
0	5262	-0.0023938717786222696
0	5258	-0.0007944810204207897
0	5272	0.0027677465695887804
0	5316	0.00865585170686245
0	5376	0.011747353710234165
0	5338	-0.0074026938527822495
0	5338	0.0
0	5454	0.02242094650864601
0	5524	0.013476396910846233
0	5464	-0.011504537425935268
0	5436	-0.005350727587938309
0	5406	-0.005717189516872168
0	5266	-0.02661900594830513
0	5170	-0.01823500357568264
0	5172	0.0003798237594310194
0	5176	0.0007593687041662633
0	5180	0.0007593014161102474
0	5222	0.007972261868417263
0	5202	-0.0037949704565107822
0	5204	0.0003793914511334151
0	5272	0.012895721010863781
0	5306	0.006444764323532581
0	5496	0.03598666563630104
0	6244	0.14141491055488586
0	8191	0.36572539806365967
1	5404	-0.5138306021690369
0	2358	-0.560954213142395
0	3130	0.14468038082122803
0	4626	0.28410276770591736
0	5526	0.1716061681509018
0	5712	0.03540856018662453
0	5734	0.004176184069365263
0	5718	-0.0030281045474112034
0	5700	-0.003397059626877308
0	5686	-0.002635790267959237
0	5666	-0.0037581033539026976
0	5654	-0.0022502390202134848
0	5626	-0.00524020753800869
0	5640	0.002617295365780592
0	5622	-0.003362663323059678
0	5628	0.0011197860585525632
0	5614	-0.0026097167283296585
0	5640	0.004840360954403877
0	5674	0.006315046455711126
0	5720	0.008517309091985226
0	5758	0.007012321148067713
0	5844	0.015813378617167473
0	5814	-0.005493935197591782
0	5822	0.0014597740955650806
0	5778	-0.007998594082891941
0	5734	-0.007970869541168213
0	5668	-0.011923042125999928
0	5510	-0.028480954468250275
0	5324	-0.03352539241313934
0	5128	-0.035524193197488785
0	4922	-0.03804060071706772
0	4774	-0.02741146646440029
0	4720	-0.009854493662714958
0	4678	-0.0075911846943199635
0	4696	0.003252345835790038
0	4706	0.0018159367609769106
0	4754	0.008769899606704712
0	4830	0.013969046995043755
0	4888	0.010718906298279762
0	4966	0.014487549662590027
0	5002	0.006716501899063587
0	5084	0.015362135134637356
0	5110	0.004888320807367563
0	5162	0.009808359667658806
0	5182	0.0037838181015104055
0	5182	0.0
0	5192	0.0019025392830371857
0	5230	0.007249048911035061
0	5182	-0.009180628694593906
0	5212	0.005755947902798653
0	5182	-0.005774708930402994
0	5214	0.006182539276778698
0	5204	-0.001939914422109723
0	5196	-0.0015580774052068591
0	5214	0.003519979305565357
0	5218	0.0007851039408706129
0	5284	0.012998096644878387
0	5348	0.012636068277060986
0	5300	-0.009487166069447994
0	5362	0.012256194837391376
0	5444	0.0161848496645689
0	5410	-0.006687822751700878
0	5396	-0.0027423733845353127
0	5402	0.001170138013549149
0	5276	-0.024457788094878197
0	5152	-0.02397957816720009
0	5182	0.00578487990424037
0	5160	-0.004230606369674206
0	5194	0.0065244087018072605
0	5176	-0.0034473512787371874
0	5226	0.009563155472278595
0	5226	0.0
0	5274	0.00915925670415163
0	5302	0.005337331909686327
0	5308	0.0011426975252106786
0	5624	0.06013397127389908
0	6662	0.1969764083623886
0	8172	0.2839057445526123
1	5790	-0.4397484362125397
0	2716	-0.5653853416442871
0	3260	0.10161007195711136
0	4478	0.23025734722614288
0	5562	0.20588010549545288
0	5636	0.014022764749825
0	5650	0.0026456026826053858
0	5692	0.007915069349110126
0	5658	-0.006388415582478046
0	5636	-0.00412402069196105
0	5634	-0.0003742374829016626
0	5620	-0.0026142161805182695
0	5616	-0.0007457214524038136
0	5598	-0.003352163592353463
0	5574	-0.004464341327548027
0	5604	0.005574273876845837
0	5606	0.0003711539029609412
0	5642	0.006667160429060459
0	5686	0.00812417734414339
0	5684	-0.0003681388043332845
0	5772	0.01614619605243206
0	5786	0.002559664426371455
0	5798	0.002185872057452798
0	5772	-0.004719663877040148
0	5730	-0.007598967291414738
0	5608	-0.022012654691934586
0	5488	-0.02161201648414135
0	5330	-0.028425104916095734
0	5096	-0.04217229411005974
0	4920	-0.03202056884765625
0	4818	-0.018930722028017044
0	4712	-0.019792120903730392
0	4696	-0.002950831549242139
0	4708	0.002193757565692067
0	4736	0.005111603066325188
0	4786	0.009173975326120853
0	4824	0.007008656393736601
0	4908	0.015571895986795425
0	4970	0.011549495160579681
0	5008	0.007109093479812145
0	5062	0.010142114944756031
0	5152	0.016964275389909744
0	5162	0.0018904783064499497
0	5224	0.0117545947432518
0	5224	0.0
0	5234	0.0019046168308705091
0	5248	0.0026727416552603245
0	5224	-0.004592305514961481
0	5210	-0.0026860057841986418
0	5240	0.00577330170199275
0	5230	-0.0019299306441098452
0	5214	-0.003098693210631609
0	5200	-0.0027214058209210634
0	5214	0.0027319914661347866
0	5210	-0.0007834125426597893
0	5202	-0.0015721622621640563
0	5240	0.007487684953957796
0	5262	0.004342047963291407
0	5314	0.010267616249620914
0	5344	0.0059151374734938145
0	5310	-0.006685192696750164
0	5406	0.018815167248249054
0	5442	0.0070238420739769936
0	5348	-0.018251482397317886
0	5410	0.011988552287220955
0	5276	-0.02579866722226143
0	5166	-0.0211116224527359
0	5128	-0.0072771841660141945
0	5134	0.0011474177008494735
0	5164	0.0057310969568789005
0	5152	-0.0022901638876646757
0	5180	0.005340657662600279
0	5182	0.0003814076480921358
0	5244	0.011822134256362915
0	5272	0.005338349379599094
0	5268	-0.0007623888668604195
0	5626	0.06821906566619873
0	7474	0.3513040840625763
0	7332	-0.026614686474204063
1	4486	-0.5264391303062439
0	2758	-0.3211298882961273
0	3948	0.22458761930465698
0	5200	0.2381858378648758
0	5552	0.0669659823179245
0	5616	0.01214959193021059
0	5608	-0.0015148072270676494
0	5600	-0.0015109353698790073
0	5580	-0.0037687967997044325
0	5582	0.00037612838787026703
0	5572	-0.001877487637102604
0	5528	-0.008249174803495407
0	5568	0.0074890474788844585
0	5524	-0.008229631930589676
0	5542	0.003364947158843279
0	5550	0.0014937262749299407
0	5588	0.007089023478329182
0	5542	-0.008564832620322704
0	5618	0.014117646962404251
0	5668	0.00925983116030693
0	5764	0.017720459029078484
0	5768	0.0007356366841122508
0	5808	0.007328691892325878
0	5754	-0.009855933487415314
0	5760	0.0010913059813901782
0	5700	-0.010879024863243103
0	5564	-0.02459549903869629
0	5356	-0.03754964470863342
0	5106	-0.04520523175597191
0	4818	-0.05283046513795853
0	4646	-0.03204411640763283
0	4604	-0.007816959172487259
0	4538	-0.012144705280661583
0	4552	0.0025668605230748653
0	4588	0.006626742891967297
0	4632	0.008147545158863068
0	4698	0.012295997701585293
0	4818	0.022483419626951218
0	4858	0.007531254552304745
0	4940	0.015509350225329399
0	4972	0.006077026017010212
0	5030	0.01105660479515791
0	5060	0.005737088620662689
0	5050	-0.0019185756100341678
0	5064	0.002694173017516732
0	5098	0.006563114933669567
0	5084	-0.002710341941565275
0	5098	0.0027191857807338238
0	5110	0.0023374499287456274
0	5128	0.00351777789182961
0	5152	0.004706928506493568
0	5154	0.0003938196459785104
0	5134	-0.003954132087528706
0	5118	-0.0031774193048477173
0	5134	0.003190852701663971
0	5140	0.0012015700340270996
0	5176	0.0072364723309874535
0	5166	-0.0020153706427663565
0	5256	0.01816151663661003
0	5306	0.010079561732709408
0	5252	-0.010850345715880394
0	5358	0.021212726831436157
0	5414	0.01115063950419426
0	5360	-0.01069024670869112
0	5360	0.0
0	5282	-0.015282131731510162
0	5092	-0.03706834837794304
0	5102	0.0019459796603769064
0	5088	-0.002719361800700426
0	5084	-0.0007758052670396864
0	5114	0.005813127383589745
0	5116	0.00038718667929060757
0	5140	0.004643663298338652
0	5182	0.008122219704091549
0	5228	0.008888201788067818
0	5238	0.001930178957991302
0	5418	0.03471195697784424
0	6198	0.15009622275829315
0	8138	0.3707006275653839
1	6008	-0.399305135011673
0	2362	-0.6797673106193542
0	3514	0.21857093274593353
0	5090	0.3021511137485504
0	5618	0.10125675797462463
0	5676	0.011087463237345219
0	5652	-0.004572125151753426
0	5654	0.0003797756799031049
0	5662	0.0015145203797146678
0	5622	-0.007548973895609379
0	5636	0.002636071527376771
0	5600	-0.006764459423720837
0	5592	-0.0014999437844380736
0	5604	0.002246629912406206
0	5578	-0.004861933644860983
0	5646	0.01269857119768858
0	5622	-0.004473883658647537
0	5652	0.005580564960837364
0	5698	0.008527256548404694
0	5748	0.009234746918082237
0	5768	0.003678950248286128
0	5864	0.017585208639502525
0	5884	0.00364688434638083
0	5886	0.0003629939747042954
0	5820	-0.011924981139600277
0	5778	-0.007559576537460089
0	5640	-0.024756914004683495
0	5430	-0.03758322075009346
0	5218	-0.0379384383559227
0	5002	-0.03888155519962311
0	4798	-0.037425700575113297
0	4642	-0.028833001852035522
0	4620	-0.004009866621345282
0	4614	-0.0010863004717975855
0	4688	0.013436304405331612
0	4686	-0.0003651989682111889
0	4800	0.020942535251379013
0	4884	0.015512273646891117
0	4928	0.008164173923432827
0	5014	0.016030022874474525
0	5066	0.009729325771331787
0	5088	0.004130938556045294
0	5142	0.010172173380851746
0	5152	0.0018890735227614641
0	5160	0.0015155725413933396
0	5180	0.0037989590782672167
0	5220	0.0076204021461308
0	5206	-0.002673967042937875
0	5224	0.0034477475564926863
0	5208	-0.003073967294767499
0	5210	0.0003855793329421431
0	5226	0.0030957357957959175
0	5264	0.007382750511169434
0	5240	-0.004681586753576994
0	5262	0.004309556912630796
0	5256	-0.0011796316830441356
0	5268	0.0023673621471971273
0	5312	0.00870161410421133
0	5316	0.0007916716276668012
0	5352	0.00712044071406126
0	5376	0.004736032336950302
0	5400	0.004718094132840633
0	5352	-0.009389548562467098
0	5444	0.017911145463585854
0	5542	0.018977046012878418
0	5472	-0.013480721972882748
0	5450	-0.0042155287228524685
0	5348	-0.0194639153778553
0	5234	-0.021689774468541145
0	5176	-0.011013773269951344
0	5212	0.006829132791608572
0	5212	0.0
0	5236	0.004544995725154877
0	5222	-0.0026496751233935356
0	5252	0.005675368942320347
0	5276	0.004537662491202354
0	5286	0.0018895495450124145
0	5314	0.005288539920002222
0	5592	0.05247196927666664
0	6694	0.20751991868019104
0	8124	0.2667976915836334
1	5660	-0.4515301585197449
0	2368	-0.6016668081283569
0	3450	0.2013048380613327
0	5038	0.2987620532512665
0	5650	0.11530201137065887
0	5736	0.016162578016519547
0	5700	-0.006745952647179365
0	5720	0.0037386904004961252
0	5698	-0.004102232865989208
0	5646	-0.009675377979874611
0	5680	0.006315632723271847
0	5666	-0.002596053993329406
0	5650	-0.002961171558126807
0	5668	0.0033270898275077343
0	5636	-0.00591023825109005
0	5636	0.0
0	5682	0.00847769994288683
0	5664	-0.0033105681650340557
0	5736	0.013207454234361649
0	5748	0.002193730790168047
0	5848	0.018221573904156685
0	5892	0.007986640557646751
0	5938	0.00831665936857462
0	5902	-0.006480725947767496
0	5832	-0.012552451342344284
0	5776	-0.01000869832932949
0	5634	-0.025305327028036118
0	5470	-0.02917042188346386
0	5242	-0.040583353489637375
0	4986	-0.04596325382590294
0	4822	-0.03000878170132637
0	4678	-0.026484545320272446
0	4630	-0.008704903535544872
0	4624	-0.001080406247638166
0	4690	0.011914074420928955
0	4730	0.007262603845447302
0	4804	0.013518122024834156
0	4858	0.009918691590428352
0	4954	0.01772678643465042
0	4968	0.0025970491115003824
0	5020	0.009686794131994247
0	5090	0.013093575835227966
0	5132	0.007884461432695389
0	5114	-0.003390043508261442
0	5152	0.007181735243648291
0	5174	0.004170563071966171
0	5182	0.0015210090205073357
0	5214	0.006103375926613808
0	5202	-0.0022953327279537916
0	5222	0.00383862410672009
0	5214	-0.0015406343154609203
0	5216	0.00038673251401633024
0	5194	-0.004272674210369587
0	5240	0.008977010846138
0	5248	0.0015679715434089303
0	5254	0.0011804826790466905
0	5262	0.0015793838538229465
0	5288	0.005145594011992216
0	5358	0.013870175927877426
0	5378	0.003959873225539923
0	5334	-0.008689241483807564
0	5418	0.016532830893993378
0	5500	0.016061214730143547
0	5468	-0.006232390180230141
0	5428	-0.007748033851385117
0	5382	-0.008867982774972916
0	5222	-0.030716462060809135
0	5192	-0.005743972025811672
0	5176	-0.0030569355003535748
0	5182	0.0011447323486208916
0	5182	0.0
0	5228	0.008755345828831196
0	5228	0.0
0	5246	0.003420925932005048
0	5314	0.012912699952721596
0	5324	0.0018969812663272023
0	5536	0.04017789661884308
0	6368	0.15732744336128235
0	8074	0.32026734948158264
1	6746	-0.24490398168563843
0	2522	-0.7717417478561401
0	3106	0.10847759991884232
0	4296	0.22396768629550934
0	5428	0.21425867080688477
0	5614	0.03516333922743797
0	5658	0.008299068547785282
0	5682	0.004515295848250389
0	5662	-0.003752861637622118
0	5648	-0.0026208721101284027
0	5636	-0.0022424038033932447
0	5600	-0.006716418080031872
0	5578	-0.00409769918769598
0	5564	-0.002605038695037365
0	5548	-0.002976005896925926
0	5586	0.007064510136842728
0	5604	0.0033430736511945724
0	5612	0.001483771251514554
0	5626	0.0025903540663421154
0	5732	0.019560324028134346
0	5748	0.002942438703030348
0	5780	0.005864529404789209
0	5786	0.0010955969337373972
0	5758	-0.005095479544252157
0	5716	-0.007618724834173918
0	5696	-0.003617683192715049
0	5612	-0.015159353613853455
0	5476	-0.024501265957951546
0	5280	-0.0353233776986599
0	5104	-0.03192763030529022
0	4896	-0.03842269629240036
0	4810	-0.016069360077381134
0	4748	-0.011422114446759224
0	4712	-0.006565988529473543
0	4756	0.008004851639270782
0	4778	0.004018803127110004
0	4836	0.010649235919117928
0	4906	0.012917512096464634
0	4990	0.01557536143809557
0	4988	-0.0003723886329680681
0	5074	0.01607857272028923
0	5130	0.010506566613912582
0	5204	0.013924606144428253
0	5196	-0.0015089025255292654
0	5182	-0.0026467028073966503
0	5182	0.0
0	5242	0.011398321017622948
0	5218	-0.0045698038302361965
0	5204	-0.00267240172252059
0	5164	-0.007655991241335869
0	5152	-0.002305150730535388
0	5176	0.004627963062375784
0	5204	0.005420333705842495
0	5270	0.012824664823710918
0	5254	-0.003118867753073573
0	5270	0.0031282587442547083
0	5366	0.018821807578206062
0	5344	-0.004320276435464621
0	5300	-0.008648024871945381
0	5292	-0.0015721622621640563
0	5130	-0.031797125935554504
0	5068	-0.012150667607784271
0	5066	-0.0003912975371349603
0	5064	-0.0003904877230525017
0	5084	0.003895952133461833
0	5130	0.008941645734012127
0	5158	0.005430355668067932
0	5144	-0.0027095377445220947
0	5182	0.00734318420290947
0	5228	0.008878137916326523
0	5238	0.0019270546035841107
0	5436	0.03811552748084068
0	6134	0.13410355150699615
0	7838	0.32544341683387756
1	6648	-0.22351615130901337
0	2472	-0.7772387266159058
0	2962	0.09275852888822556
0	4248	0.24699737131595612
0	5428	0.22805456817150116
0	5584	0.03010614402592182
0	5652	0.013087829574942589
0	5650	-0.00038370530819520354
0	5614	-0.0068858228623867035
0	5602	-0.0022892900742590427
0	5616	0.002665211446583271
0	5574	-0.007977309636771679
0	5550	-0.004549705423414707
0	5556	0.0011361053911969066
0	5582	0.004916545003652573
0	5564	-0.003397722262889147
0	5530	-0.006406954489648342
0	5574	0.008270572870969772
0	5596	0.0041222176514565945
0	5628	0.005976169835776091
0	5700	0.0133993374183774
0	5768	0.012606755830347538
0	5792	0.00443196902051568
0	5744	-0.008829480037093163
0	5736	-0.0014661860186606646
0	5652	-0.01534302718937397
0	5508	-0.02623460628092289
0	5300	-0.03783239796757698
0	5052	-0.04514508321881294
0	4882	-0.03115074336528778
0	4710	-0.0320967398583889
0	4622	-0.016621962189674377
0	4586	-0.006709074601531029
0	4566	-0.0036900369450449944
0	4598	0.005892534740269184
0	4652	0.009994571097195148
0	4720	0.012658542022109032
0	4776	0.010485321283340454
0	4886	0.02070913091301918
0	4930	0.008321670815348625
0	4986	0.010636277496814728
0	4998	0.002288329415023327
0	5042	0.008421375416219234
0	5052	0.0019201720133423805
0	5130	0.01502581313252449
0	5126	-0.0007727975025773048
0	5130	0.000774983549490571
0	5130	0.0
0	5140	0.001948077231645584
0	5118	-0.004298497922718525
0	5134	0.00313659873791039
0	5152	0.003541773185133934
0	5160	0.0015805071452632546
0	5132	-0.005554893985390663
0	5174	0.008366200141608715
0	5108	-0.01319612842053175
0	5158	0.010033444501459599
0	5216	0.011666107922792435
0	5280	0.012880200520157814
0	5254	-0.005224590189754963
0	5336	0.01643659919500351
0	5418	0.016368135809898376
0	5374	-0.008736629970371723
0	5330	-0.008691300638020039
0	5260	-0.013757861219346523
0	5152	-0.02113475278019905
0	5064	-0.0171649269759655
0	5080	0.0031139308121055365
0	5132	0.010100355371832848
0	5176	0.008532864972949028
0	5160	-0.0030979334842413664
0	5172	0.0023208437487483025
0	5210	0.007341103628277779
0	5248	0.007333170622587204
0	5258	0.001927351695485413
0	5518	0.05006996914744377
0	6554	0.19900880753993988
0	7850	0.246703639626503
1	5458	-0.44761040806770325
0	2550	-0.5430912375450134
0	3890	0.2543209493160248
0	5232	0.2567209005355835
0	5554	0.0615663081407547
0	5628	0.014113339595496655
0	5670	0.00798509456217289
0	5618	-0.009855328127741814
0	5622	0.0007556675118394196
0	5614	-0.0015069319633767009
0	5614	0.0
0	5598	-0.0030000749975442886
0	5602	0.0007484096568077803
0	5598	-0.000747170124668628
0	5584	-0.002612167736515403
0	5614	0.0055902013555169106
0	5648	0.00632440485060215
0	5696	0.008907143026590347
0	5700	0.0007397726294584572
0	5752	0.009579485282301903
0	5794	0.007705479860305786
0	5884	0.016445163637399673
0	5916	0.005822062958031893
0	5838	-0.014126511290669441
0	5786	-0.009379960596561432
0	5698	-0.015818992629647255
0	5586	-0.020079122856259346
0	5324	-0.046878915280103683
0	5080	-0.04370880126953125
0	4872	-0.037590816617012024
0	4704	-0.030916452407836914
0	4600	-0.019227687269449234
0	4630	0.005477251019328833
0	4630	0.0
0	4670	0.007296873722225428
0	4762	0.01687350869178772
0	4822	0.011063034646213055
0	4918	0.017793593928217888
0	4924	0.0011169301578775048
0	5010	0.016078973188996315
0	5028	0.0033780825324356556
0	5094	0.012431876733899117
0	5152	0.010959663428366184
0	5108	-0.008337859995663166
0	5142	0.006462895777076483
0	5172	0.005718569736927748
0	5182	0.0019115584436804056
0	5200	0.003451052587479353
0	5206	0.0011540089035406709
0	5202	-0.0007717836415395141
0	5216	0.0027108315844088793
0	5234	0.0034984061494469643
0	5256	0.004293912090361118
0	5240	-0.003136312123388052
0	5250	0.001967884134501219
0	5292	0.008294275961816311
0	5366	0.014652884565293789
0	5388	0.0043625980615615845
0	5358	-0.005946481600403786
0	5364	0.0011871159076690674
0	5478	0.02248225174844265
0	5444	-0.006671288516372442
0	5436	-0.0015610974514856935
0	5382	-0.01048245094716549
0	5202	-0.03477230668067932
0	5182	-0.0038503992836922407
0	5162	-0.0038400492630898952
0	5194	0.006130737718194723
0	5182	-0.0022949816193431616
0	5208	0.00496429530903697
0	5228	0.003813882591202855
0	5238	0.001904520089738071
0	5266	0.005327785387635231
0	5312	0.008746466599404812
0	5340	0.005317061208188534
0	5740	0.07586294412612915
0	7150	0.26646003127098083
0	7762	0.11423877626657486
1	4892	-0.5273215174674988
0	2816	-0.38217028975486755
0	4318	0.2806112766265869
0	5400	0.20328156650066376
0	5690	0.054427385330200195
0	5730	0.007486897986382246
0	5742	0.00223922380246222
0	5718	-0.004464784171432257
0	5684	-0.006308445706963539
0	5640	-0.008147845976054668
0	5668	0.005176940467208624
0	5634	-0.006274297833442688
0	5644	0.0018423219444230199
0	5648	0.0007361782481893897
0	5660	0.002205774188041687
0	5680	0.003671251703053713
0	5724	0.008062053471803665
0	5716	-0.0014611693331971765
0	5764	0.008738606236875057
0	5834	0.012697415426373482
0	5872	0.006866311654448509
0	5920	0.008637339808046818
0	5902	-0.0032252285163849592
0	5878	-0.004283062648028135
0	5768	-0.019556252285838127
0	5690	-0.013826028443872929
0	5434	-0.04527661204338074
0	5214	-0.03888803720474243
0	5012	-0.03581729531288147
0	4806	-0.036994025111198425
0	4694	-0.020475570112466812
0	4598	-0.017571689561009407
0	4588	-0.0018106976058334112
0	4682	0.01699286513030529
0	4682	0.0
0	4762	0.01461400743573904
0	4794	0.005880263168364763
0	4860	0.012198878452181816
0	4904	0.008175804279744625
0	4956	0.009709221310913563
0	5058	0.01912643574178219
0	5074	0.003011707914993167
0	5102	0.005289073102176189
0	5110	0.0015163385542109609
0	5114	0.0007607552106492221
0	5106	-0.0015267952112480998
0	5102	-0.0007661954150535166
0	5116	0.0026923767291009426
0	5116	0.0
0	5108	-0.0015509085496887565
0	5110	0.0003895547124557197
0	5160	0.009787289425730705
0	5158	-0.0003934426058549434
0	5152	-0.001186114619486034
0	5152	0.0
0	5162	0.001994495280086994
0	5136	-0.005203954875469208
0	5182	0.009225338697433472
0	5250	0.01364037487655878
0	5250	0.0
0	5220	-0.005990495439618826
0	5326	0.021092567592859268
0	5336	0.0019803026225417852
0	5304	-0.006305832881480455
0	5278	-0.0051026418805122375
0	5126	-0.029714971780776978
0	4988	-0.02691422589123249
0	4990	0.0003895699046552181
0	5006	0.0031139308121055365
0	5020	0.0027228877879679203
0	5040	0.0038882263470441103
0	5044	0.0007777360151521862
0	5046	0.00038894361932761967
0	5082	0.0070035276003181934
0	5100	0.0035023996606469154
0	5140	0.00778381759300828
0	5298	0.030739299952983856
0	6050	0.14611777663230896
0	7986	0.37391361594200134
1	5690	-0.4353982210159302
0	2106	-0.6771548390388489
0	2952	0.1629241555929184
0	4600	0.3219378888607025
0	5428	0.1623402088880539
0	5522	0.018396742641925812
0	5538	0.0031238205265253782
0	5560	0.0042847683653235435
0	5548	-0.0023307306692004204
0	5522	-0.005037978757172823
0	5494	-0.005416000261902809
0	5490	-0.0007724990136921406
0	5488	-0.0003855793329421431
0	5494	0.0011555349919945002
0	5476	-0.003463092492893338
0	5504	0.005381097085773945
0	5494	-0.0019190420862287283
0	5520	0.004977791104465723
0	5548	0.005342559888958931
0	5630	0.015590737573802471
0	5690	0.01136291865259409
0	5744	0.010183556005358696
0	5758	0.002628548536449671
0	5718	-0.00747672887519002
0	5720	0.0003722777182701975
0	5656	-0.011865914799273014
0	5558	-0.01810746267437935
0	5410	-0.02727574110031128
0	5220	-0.03499208018183708
0	4970	-0.04627801477909088
0	4784	-0.035083748400211334
0	4650	-0.025420192629098892
0	4604	-0.00858817808330059
0	4568	-0.006652786396443844
0	4590	0.004066392779350281
0	4636	0.008546585217118263
0	4696	0.011209226213395596
0	4788	0.017278077080845833
0	4806	0.003396910149604082
0	4898	0.017443403601646423
0	4956	0.011040469631552696
0	5018	0.011842305772006512
0	5014	-0.0007663226570002735
0	5054	0.007686493918299675
0	5094	0.007708218414336443
0	5152	0.011204410344362259
0	5174	0.004259603563696146
0	5174	0.0
0	5212	0.007389258127659559
0	5194	-0.0035078146029263735
0	5204	0.00195432105101645
0	5246	0.008234217762947083
0	5258	0.0023603150621056557
0	5268	0.0019733987282961607
0	5350	0.016229910776019096
0	5388	0.007539582438766956
0	5364	-0.0047702970914542675
0	5430	0.01313520036637783
0	5536	0.021093128249049187
0	5512	-0.004765813238918781
0	5418	-0.01859937608242035
0	5422	0.0007881669444032013
0	5290	-0.025878295302391052
0	5182	-0.021078655496239662
0	5182	0.0
0	5204	0.004260373301804066
0	5226	0.0042448099702596664
0	5236	0.0019229042809456587
0	5260	0.004601756576448679
0	5306	0.008794514462351799
0	5308	0.00038137854426167905
0	5366	0.011035287752747536
0	5444	0.014807877130806446
0	6016	0.10829641669988632
0	7428	0.2657198905944824
0	7166	-0.04859350994229317
1	3938	-0.5913387537002563
0	3148	-0.14582102000713348
0	4238	0.20373576879501343
0	5414	0.2211523950099945
0	5682	0.05032927170395851
0	5702	0.0037447104696184397
0	5724	0.0041074915789067745
0	5742	0.003350956831127405
0	5710	-0.0059397853910923
0	5678	-0.005926584359258413
0	5658	-0.0036974954418838024
0	5632	-0.004798051435500383
0	5638	0.0011058684904128313
0	5654	0.002947135828435421
0	5658	0.0007361421012319624
0	5670	0.0022051797714084387
0	5718	0.008807339705526829
0	5704	-0.0025621005333960056
0	5776	0.01313469186425209
0	5798	0.003998933359980583
0	5864	0.011953778564929962
0	5894	0.005412687547504902
0	5868	-0.004672504961490631
0	5838	-0.005371787119656801
0	5776	-0.011066554114222527
0	5728	-0.008543863892555237
0	5568	-0.028418509289622307
0	5354	-0.037981871515512466
0	5194	-0.028509318828582764
0	5020	-0.03142079710960388
0	4902	-0.021587207913398743
0	4844	-0.010548651218414307
0	4824	-0.003600446507334709
0	4808	-0.0028702642302960157
0	4830	0.003960966132581234
0	4868	0.006876832339912653
0	4912	0.00800290983170271
0	4968	0.010235914029181004
0	5070	0.018732324242591858
0	5114	0.008112394250929356
0	5182	0.012580943293869495
0	5208	0.004824523348361254
0	5242	0.006325581576675177
0	5280	0.007087172474712133
0	5274	-0.0011216350831091404
0	5290	0.0029982011765241623
0	5294	0.0007513336022384465
0	5262	-0.006026668008416891
0	5266	0.0007554296753369272
0	5250	-0.003031451255083084
0	5226	-0.0045629688538610935
0	5176	-0.009544777683913708
0	5182	0.0011506302980706096
0	5132	-0.009630818851292133
0	5092	-0.0077397385612130165
0	5112	0.0038870172575116158
0	5110	-0.0003902591415680945
0	5140	0.005871377885341644
0	5262	0.023910317569971085
0	5268	0.0011753950966522098
0	5250	-0.003520484082400799
0	5254	0.0007805589120835066
0	5172	-0.015958895906805992
0	5074	-0.01902986504137516
0	5090	0.003101576818153262
0	5112	0.004257515072822571
0	5152	0.007728771306574345
0	5214	0.011961107142269611
0	5196	-0.0034670948516577482
0	5252	0.010777797549962997
0	5302	0.009614521637558937
0	5294	-0.0015371411573141813
0	5358	0.01229035947471857
0	5692	0.064092718064785
0	7046	0.25914207100868225
0	7934	0.1680545061826706
1	5414	-0.4690873920917511
0	2720	-0.5011036396026611
0	3810	0.2059946358203888
0	5316	0.2872474193572998
0	5740	0.08083786070346832
0	5784	0.008361521176993847
0	5790	0.0011358329793438315
0	5760	-0.005657459609210491
0	5746	-0.002629766473546624
0	5806	0.011224464513361454
0	5730	-0.01415639091283083
0	5704	-0.004824404139071703
0	5714	0.001849089516326785
0	5714	0.0
0	5706	-0.001471129129640758
0	5736	0.005501356907188892
0	5800	0.011701751500368118
0	5812	0.002185712568461895
0	5826	0.002538623521104455
0	5918	0.016608497127890587
0	5930	0.0021558692678809166
0	5956	0.0046493886038661
0	5964	0.0014242816250771284
0	5890	-0.013114831410348415
0	5792	-0.017303073778748512
0	5690	-0.01795753464102745
0	5438	-0.04426281526684761
0	5222	-0.03792179375886917
0	4982	-0.04225153848528862
0	4834	-0.026374565437436104
0	4742	-0.016702573746442795
0	4692	-0.009114551357924938
0	4696	0.0007205302827060223
0	4738	0.0075255329720675945
0	4796	0.010428403504192829
0	4872	0.013742555864155293
0	4930	0.010545710101723671
0	4992	0.011332065798342228
0	5006	0.0025708829052746296
0	5060	0.0099613843485713
0	5136	0.01408433262258768
0	5182	0.0085561228916049
0	5170	-0.0022392794489860535
0	5206	0.006740647368133068
0	5194	-0.002254029270261526
0	5204	0.0018843983998522162
0	5212	0.0015125732170417905
0	5214	0.0003795498632825911
0	5226	0.0022859463933855295
0	5246	0.0038244817405939102
0	5228	-0.0034568405244499445
0	5204	-0.004629927687346935
0	5234	0.005815531127154827
0	5258	0.004674474708735943
0	5260	0.00039114448009058833
0	5264	0.0007850115071050823
0	5268	0.00078720529563725
0	5354	0.016943808645009995
0	5370	0.0031496062874794006
0	5336	-0.006675917189568281
0	5446	0.02152782306075096
0	5494	0.009351014159619808
0	5390	-0.020155560225248337
0	5392	0.0003858769196085632
0	5308	-0.016138948500156403
0	5162	-0.027959350496530533
0	5134	-0.00535215949639678
0	5152	0.0034362073056399822
0	5166	0.0026698876172304153
0	5182	0.0030481996946036816
0	5182	0.0
0	5236	0.01027670968323946
0	5244	0.0015219541965052485
0	5250	0.0011409302242100239
0	5310	0.011406120844185352
0	5790	0.09118194133043289
0	7594	0.34142524003982544
0	7106	-0.09099158644676208
1	4384	-0.5016402006149292
0	2728	-0.30677270889282227
0	4204	0.27774640917778015
0	5406	0.22764863073825836
0	5626	0.041613075882196426
0	5640	0.002641575876623392
0	5670	0.005646952427923679
0	5644	-0.0048814681358635426
0	5642	-0.00037460666499100626
0	5622	-0.003737339749932289
0	5614	-0.0014924444258213043
0	5574	-0.007450916804373264
0	5600	0.004835949745029211
0	5598	-0.0003716413048096001
0	5608	0.001857010181993246
0	5616	0.0014836061745882034
0	5634	0.0033334980253130198
0	5660	0.004805381875485182
0	5698	0.007001768797636032
0	5742	0.008079323917627335
0	5820	0.014270903542637825
0	5862	0.007653804961591959
0	5888	0.004718579351902008
0	5838	-0.00903560034930706
0	5800	-0.006842243950814009
0	5684	-0.020817382261157036
0	5506	-0.03186119347810745
0	5274	-0.04147844389081001
0	5020	-0.04555182158946991
0	4806	-0.03897807002067566
0	4630	-0.03251071274280548
0	4562	-0.012541960924863815
0	4558	-0.0007295365212485194
0	4634	0.0138314263895154
0	4680	0.008411044254899025
0	4752	0.013241460546851158
0	4796	0.008136294782161713
0	4856	0.011155042797327042
0	4906	0.009341486729681492
0	4984	0.014639823697507381
0	4994	0.001884422148577869
0	5072	0.014755958691239357
0	5102	0.005693391896784306
0	5116	0.002665312960743904
0	5130	0.0026734904386103153
0	5154	0.004597114399075508
0	5164	0.0019211311591789126
0	5170	0.0011561583960428834
0	5154	-0.0030928233172744513
0	5182	0.005431479308754206
0	5172	-0.0019468636019155383
0	5182	0.001955085201188922
0	5178	-0.0007855150615796447
0	5208	0.0059188720770180225
0	5206	-0.00039623313932679594
0	5226	0.003977935761213303
0	5214	-0.0023940308019518852
0	5254	0.007995628751814365
0	5268	0.002798842964693904
0	5272	0.000798350025434047
0	5322	0.009948533028364182
0	5336	0.002772863022983074
0	5322	-0.0027587655931711197
0	5446	0.02431277185678482
0	5444	-0.0003900713927578181
0	5414	-0.005822152364999056
0	5358	-0.010821674950420856
0	5280	-0.015018677338957787
0	5168	-0.02150675281882286
0	5152	-0.003067249432206154
0	5138	-0.002680965233594179
0	5172	0.006504936143755913
0	5182	0.0019119972130283713
0	5174	-0.0015288182767108083
0	5200	0.0049668243154883385
0	5256	0.010693008080124855
0	5248	-0.0015265815891325474
0	5282	0.006484507117420435
0	5486	0.038879361003637314
0	6550	0.2023557424545288
0	7756	0.227389857172966
1	4114	-0.6757208108901978
0	2664	-0.2708154320716858
0	4160	0.28384941816329956
0	5342	0.2257678359746933
0	5620	0.05305343493819237
0	5658	0.007233778014779091
0	5650	-0.001518622157163918
0	5634	-0.003029652638360858
0	5628	-0.001133501180447638
0	5630	0.0003769886097870767
0	5614	-0.0030100836884230375
0	5584	-0.005634084809571505
0	5558	-0.004874878097325563
0	5582	0.004496739711612463
0	5588	0.0011232169345021248
0	5600	0.002243997296318412
0	5640	0.007468725088983774
0	5642	0.00037260138196870685
0	5678	0.006687140557914972
0	5720	0.007776337675750256
0	5804	0.015497011132538319
0	5844	0.007350959349423647
0	5828	-0.0029285079799592495
0	5818	-0.001823043217882514
0	5762	-0.010170846246182919
0	5682	-0.014485406689345837
0	5468	-0.03864722698926926
0	5254	-0.0386040024459362
0	5040	-0.03865792974829674
0	4798	-0.04411711171269417
0	4664	-0.024875622242689133
0	4576	-0.016280818730592728
0	4570	-0.0010971194133162498
0	4552	-0.0032831537537276745
0	4636	0.0153953293338418
0	4694	0.010694398544728756
0	4758	0.011871051043272018
0	4822	0.011936884373426437
0	4868	0.00862316694110632
0	4930	0.011677988804876804
0	4972	0.007945816963911057
0	5014	0.00797811709344387
0	5028	0.002669005189090967
0	5110	0.01568557508289814
0	5138	0.005372217856347561
0	5096	-0.008081585168838501
0	5118	0.004246939904987812
0	5162	0.00852250773459673
0	5162	0.0
0	5168	0.0011696817819029093
0	5152	-0.0031303802970796824
0	5142	-0.0019648424349725246
0	5176	0.006711320951581001
0	5178	0.0003964844800066203
0	5210	0.00637069484218955
0	5200	-0.0019981616642326117
0	5210	0.0020045973360538483
0	5216	0.0012048354838043451
0	5202	-0.0028119978960603476
0	5272	0.014044755138456821
0	5312	0.008000213652849197
0	5276	-0.007169220130890608
0	5328	0.010307643562555313
0	5454	0.024851743131875992
0	5434	-0.003921465948224068
0	5370	-0.012483582831919193
0	5318	-0.010098525322973728
0	5232	-0.016641082242131233
0	5114	-0.022772887721657753
0	5090	-0.004624455701559782
0	5110	0.0038497569039463997
0	5116	0.001153905293904245
0	5176	0.011531513184309006
0	5170	-0.0011520589469000697
0	5152	-0.0034548500552773476
0	5202	0.009595947340130806
0	5216	0.0026850441936403513
0	5294	0.014950165525078773
0	5688	0.07545386999845505
0	6810	0.21415211260318756
0	7958	0.21684926748275757
1	5248	-0.5030131340026855
0	2652	-0.4815373420715332
0	3738	0.20463795959949493
0	5136	0.26583337783813477
0	5522	0.07343335449695587
0	5592	0.013289793394505978
0	5564	-0.005303097423166037
0	5570	0.0011338868644088507
0	5532	-0.007164674811065197
0	5546	0.00263531063683331
0	5522	-0.004511052276939154
0	5488	-0.006380822509527206
0	5474	-0.0026247703935950994
0	5474	0.0
0	5482	0.0014993066433817148
0	5502	0.0037456457503139973
0	5494	-0.0014965393347665668
0	5558	0.011952786706387997
0	5558	0.0
0	5658	0.01857079192996025
0	5670	0.0022209607996046543
0	5680	0.0018444966990500689
0	5668	-0.0022065583616495132
0	5614	-0.009899296797811985
0	5572	-0.007677776739001274
0	5482	-0.016415370628237724
0	5342	-0.025493791326880455
0	5134	-0.03786545619368553
0	4960	-0.03178275749087334
0	4804	-0.028819508850574493
0	4654	-0.028259940445423126
0	4584	-0.013237351551651955
0	4530	-0.010088806040585041
0	4558	0.005205557681620121
0	4630	0.01343383826315403
0	4678	0.009005853906273842
0	4710	0.006038419436663389
0	4806	0.018213093280792236
0	4854	0.009150758385658264
0	4896	0.008041560649871826
0	4988	0.017688225954771042
0	5018	0.005787706933915615
0	5044	0.005031219217926264
0	5060	0.0031047463417053223
0	5070	0.0019456766312941909
0	5112	0.008193735964596272
0	5110	-0.00039116997504606843
0	5104	-0.0011764551745727658
0	5090	-0.002753231907263398
0	5106	0.0031562333460897207
0	5112	0.0011878992663696408
0	5160	0.00953831896185875
0	5118	-0.008374875411391258
0	5160	0.008405604399740696
0	5140	-0.0040148282423615456
0	5176	0.00724764121696353
0	5224	0.009683406911790371
0	5266	0.008479708805680275
0	5250	-0.003227498382329941
0	5288	0.007650390267372131
0	5414	0.025284957140684128
0	5386	-0.005590458866208792
0	5344	-0.008341167122125626
0	5338	-0.0011852086754515767
0	5162	-0.03458847478032112
0	5108	-0.01057551708072424
0	5140	0.006249430123716593
0	5152	0.002336994744837284
0	5174	0.004274887964129448
0	5198	0.004653868731111288
0	5168	-0.0058060018345713615
0	5228	0.011598535813391209
0	5270	0.008108003064990044
0	5240	-0.005783020984381437
0	5376	0.026186075061559677
0	5980	0.11606903374195099
0	7590	0.30767858028411865
0	7014	-0.10836438089609146
1	4314	-0.5019457936286926
0	2908	-0.2626466453075409
0	4284	0.26060935854911804
0	5388	0.21019229292869568
0	5608	0.04182562604546547
0	5656	0.009097341448068619
0	5662	0.001133615500293672
0	5702	0.007532672490924597
0	5674	-0.005255518015474081
0	5652	-0.004117742646485567
0	5614	-0.007095376495271921
0	5644	0.005588951054960489
0	5658	0.002602424006909132
0	5614	-0.008166699670255184
0	5628	0.002594834892079234
0	5656	0.0051805805414915085
0	5682	0.004801122937351465
0	5732	0.009203470312058926
0	5756	0.00440081674605608
0	5818	0.011326131410896778
0	5856	0.006913783960044384
0	5878	0.0039862291887402534
0	5918	0.007218045182526112
0	5862	-0.010059880092740059
0	5822	-0.007158452644944191
0	5722	-0.017837394028902054
0	5582	-0.02490098960697651
0	5330	-0.0447671040892601
0	5046	-0.05064675584435463
0	4828	-0.03947368636727333
0	4750	-0.014312452636659145
0	4668	-0.015006404370069504
0	4658	-0.0018106101779267192
0	4698	0.007226129528135061
0	4776	0.014149744994938374
0	4838	0.011304104700684547
0	4870	0.0058635263703763485
0	4976	0.01951734349131584
0	5030	0.009987300261855125
0	5084	0.010027110576629639
0	5108	0.004472216125577688
0	5152	0.008224913850426674
0	5220	0.01275031827390194
0	5216	-0.0007520776125602424
0	5224	0.0015079164877533913
0	5244	0.003779384773224592
0	5250	0.0011367655824869871
0	5248	-0.0003799584519583732
0	5264	0.003049012739211321
0	5258	-0.0011469643795862794
0	5276	0.0034532153513282537
0	5242	-0.006547022610902786
0	5260	0.0034802784211933613
0	5268	0.0015533778350800276
0	5284	0.003118746215477586
0	5296	0.0023472646716982126
0	5282	-0.002746103098616004
0	5324	0.008254501037299633
0	5354	0.005896303802728653
0	5424	0.013730335980653763
0	5406	-0.003516952972859144
0	5450	0.0085604228079319
0	5546	0.018583042547106743
0	5502	-0.008468704298138618
0	5466	-0.006893382407724857
0	5434	-0.006100583355873823
0	5288	-0.027728891000151634
0	5226	-0.011744203045964241
0	5194	-0.006051971577107906
0	5214	0.0037785754539072514
0	5222	0.0015101938042789698
0	5254	0.006036445032805204
0	5250	-0.0007540719816461205
0	5316	0.012439843267202377
0	5302	-0.0026370976120233536
0	5314	0.002259262837469578
0	5398	0.015807896852493286
0	5844	0.0838545486330986
0	7368	0.28546810150146484
0	7040	-0.06064266338944435
1	3380	-0.6693326234817505
0	3358	-0.00407035555690527
0	4894	0.28752559423446655
0	5586	0.12983277440071106
0	5706	0.022469665855169296
0	5724	0.0033615955617278814
0	5760	0.006705325562506914
0	5732	-0.005199822131544352
0	5706	-0.004816242028027773
0	5714	0.0014787066029384732
0	5670	-0.008118380792438984
0	5646	-0.00442102923989296
0	5666	0.0036797625944018364
0	5636	-0.005515584722161293
0	5666	0.005511058960109949
0	5664	-0.00036695454036816955
0	5682	0.0032979517709463835
0	5714	0.005848950706422329
0	5758	0.008018466643989086
0	5796	0.006901395041495562
0	5882	0.015564109198749065
0	5904	0.003965726587921381
0	5888	-0.002872943878173828
0	5898	0.001788759371265769
0	5812	-0.015330132097005844
0	5770	-0.007464189548045397
0	5580	-0.033675603568553925
0	5374	-0.03647222742438316
0	5152	-0.03941434621810913
0	4906	-0.04425574839115143
0	4734	-0.031344152987003326
0	4640	-0.01699020341038704
0	4612	-0.005022121127694845
0	4638	0.004671274218708277
0	4670	0.005782087333500385
0	4728	0.010545838624238968
0	4800	0.013170892372727394
0	4880	0.014720493927598
0	4914	0.006289075128734112
0	5004	0.016729246824979782
0	5052	0.008961688727140427
0	5086	0.006372371688485146
0	5126	0.007523227948695421
0	5168	0.007926222868263721
0	5118	-0.009463842026889324
0	5162	0.008357075043022633
0	5214	0.009908033534884453
0	5228	0.0026755002327263355
0	5182	-0.008818229660391808
0	5182	0.0
0	5202	0.0038633907679468393
0	5180	-0.004268418997526169
0	5206	0.0050682262517511845
0	5194	-0.0023495934437960386
0	5170	-0.004720878321677446
0	5190	0.0039506955072283745
0	5220	0.005948761012405157
0	5236	0.003180240048095584
0	5256	0.003978937864303589
0	5318	0.01232620794326067
0	5354	0.007137664593756199
0	5340	-0.0027644308283925056
0	5404	0.01257944107055664
0	5434	0.005866172723472118
0	5350	-0.016340505331754684
0	5362	0.0023241101298481226
0	5266	-0.018517090007662773
0	5094	-0.03307734802365303
0	5062	-0.006145494524389505
0	5076	0.0026861089281737804
0	5090	0.0026848725974559784
0	5104	0.0026842206716537476
0	5108	0.0007668319740332663
0	5098	-0.0019173005130141973
0	5172	0.014194373041391373
0	5200	0.005368990357965231
0	5182	-0.003450655611231923
0	5434	0.04831905663013458
0	6486	0.20144765079021454
0	8026	0.2924605906009674
1	5836	-0.408546507358551
0	2280	-0.6607699990272522
0	3522	0.23500770330429077
0	5172	0.315559983253479
0	5552	0.07268460839986801
0	5578	0.00496107479557395
0	5594	0.003045453457161784
0	5572	-0.004177585244178772
0	5590	0.003410770557820797
0	5560	-0.005672650411725044
0	5518	-0.007929614745080471
0	5518	0.0
0	5492	-0.004898266866803169
0	5526	0.006401888094842434
0	5540	0.0026345502119511366
0	5518	-0.004135079216212034
0	5520	0.0003755492507480085
0	5560	0.007499062456190586
0	5604	0.008225016295909882
0	5640	0.006706907879561186
0	5716	0.01410960964858532
0	5752	0.006657707504928112
0	5772	0.003684010123834014
0	5754	-0.0033021464478224516
0	5750	-0.0007308783824555576
0	5668	-0.014930445700883865
0	5560	-0.019608791917562485
0	5356	-0.03695428743958473
0	5132	-0.040596380829811096
0	4940	-0.035083871334791183
0	4714	-0.042087752372026443
0	4596	-0.022129148244857788
0	4530	-0.012200683355331421
0	4504	-0.004776660352945328
0	4568	0.011806230060756207
0	4578	0.0018559532472863793
0	4648	0.013072546571493149
0	4738	0.01690712198615074
0	4776	0.00717603974044323
0	4860	0.015944523736834526
0	4892	0.006101126316934824
0	4950	0.011102461256086826
0	4984	0.006532013416290283
0	5006	0.004240391310304403
0	5070	0.012377035804092884
0	5076	0.0011638733558356762
0	5078	0.0003890697262249887
0	5096	0.0035116926301270723
0	5144	0.009392856620252132
0	5152	0.0015701873926445842
0	5154	0.0003938041627407074
0	5180	0.005138407927006483
0	5152	-0.005554600153118372
0	5166	0.002788733458146453
0	5182	0.0031996159814298153
0	5174	-0.0016058883629739285
0	5172	-0.0004028035036753863
0	5210	0.007673254236578941
0	5248	0.0076808021403849125
0	5286	0.0076748039573431015
0	5310	0.004835980013012886
0	5306	-0.0008027830044738948
0	5394	0.01757773384451866
0	5466	0.014299522154033184
0	5398	-0.013419639319181442
0	5418	0.003925519995391369
0	5310	-0.021081946790218353
0	5166	-0.027988702058792114
0	5152	-0.002713599009439349
0	5170	0.0034804579336196184
0	5182	0.0023156784009188414
0	5228	0.008860238827764988
0	5218	-0.0019227071898058057
0	5254	0.006911381147801876
0	5288	0.00651707174256444
0	5290	0.0003828239568974823
0	5326	0.00688143540173769
0	5600	0.05229273810982704
0	6410	0.15409395098686218
0	8130	0.32460588216781616
1	6542	-0.29418304562568665
0	2548	-0.7336158156394958
0	3062	0.09595758467912674
0	4234	0.2216814011335373
0	5380	0.21804483234882355
0	5672	0.055487990379333496
0	5736	0.012123508378863335
0	5758	0.0041526672430336475
0	5758	0.0
0	5698	-0.011250562034547329
0	5668	-0.005610832944512367
0	5704	0.006718005519360304
0	5696	-0.0014892033068463206
0	5672	-0.004459253512322903
0	5670	-0.0003711309691425413
0	5692	0.004075583536177874
0	5624	-0.01257598027586937
0	5688	0.011813349090516567
0	5714	0.004783808719366789
0	5734	0.0036672125570476055
0	5772	0.006943767890334129
0	5808	0.006554750259965658
0	5850	0.007620383985340595
0	5842	-0.001445974688977003
0	5796	-0.00828500371426344
0	5764	-0.005745957139879465
0	5680	-0.01504046656191349
0	5564	-0.02072637528181076
0	5376	-0.03359822928905487
0	5182	-0.03488539159297943
0	4962	-0.040272388607263565
0	4852	-0.02033221535384655
0	4790	-0.011299572885036469
0	4776	-0.0025250096805393696
0	4768	-0.0014381763758137822
0	4802	0.00613474752753973
0	4854	0.009431908838450909
0	4920	0.012035449966788292
0	4968	0.008797869086265564
0	5062	0.01731272228062153
0	5106	0.008135592564940453
0	5170	0.011874721385538578
0	5176	0.001116944127716124
0	5232	0.010458557866513729
0	5248	0.002996366936713457
0	5230	-0.0033798161894083023
0	5230	0.0
0	5240	0.0018877896945923567
0	5224	-0.00302900280803442
0	5242	0.0034181976225227118
0	5268	0.0049528214149177074
0	5264	-0.0007644188590347767
0	5332	0.013040309771895409
0	5330	-0.00038481270894408226
0	5304	-0.0050190468318760395
0	5386	0.015879573300480843
0	5460	0.01436539925634861
0	5374	-0.016718724742531776
0	5390	0.003114294493570924
0	5316	-0.014402303844690323
0	5180	-0.026446109637618065
0	5152	-0.005437104497104883
0	5180	0.005426567047834396
0	5202	0.004253015853464603
0	5208	0.0011567380279302597
0	5226	0.0034604293759912252
0	5242	0.003067602403461933
0	5222	-0.0038250181823968887
0	5264	0.008017103187739849
0	5318	0.010288327932357788
0	5552	0.044510383158922195
0	6500	0.1798156201839447
0	8024	0.28666016459465027
1	6688	-0.24688923358917236
0	2756	-0.7201641201972961
0	3300	0.10117542743682861
0	4438	0.21421310305595398
0	5478	0.19674363732337952
0	5672	0.03664525970816612
0	5672	0.0
0	5694	0.0041328007355332375
0	5694	0.0
0	5664	-0.005605590995401144
0	5680	0.0029834790620952845
0	5662	-0.0033491281792521477
0	5620	-0.00779731897637248
0	5628	0.0014830561121925712
0	5648	0.003703795140609145
0	5620	-0.005176557693630457
0	5692	0.01329230796545744
0	5694	0.00036837838706560433
0	5738	0.008078829385340214
0	5756	0.00329316477291286
0	5800	0.008021780289709568
0	5846	0.008356040343642235
0	5816	-0.005428619682788849
0	5792	-0.0043274955824017525
0	5720	-0.012939711101353168
0	5678	-0.007525712717324495
0	5528	-0.026811249554157257
0	5290	-0.042487356811761856
0	5142	-0.02646196447312832
0	4948	-0.03496965765953064
0	4850	-0.017997723072767258
0	4762	-0.016345130279660225
0	4748	-0.002568461699411273
0	4766	0.00327332247979939
0	4778	0.002177884802222252
0	4784	0.0010935734026134014
0	4874	0.016492579132318497
0	4938	0.011785504408180714
0	5008	0.012950492091476917
0	5094	0.015978200361132622
0	5116	0.00410192646086216
0	5152	0.006735854782164097
0	5182	0.005631124135106802
0	5202	0.003764399094507098
0	5228	0.004906833171844482
0	5236	0.001513794413767755
0	5226	-0.0018968373769894242
0	5236	0.0019024427747353911
0	5224	-0.00228958111256361
0	5228	0.0007656968082301319
0	5216	-0.002304855501279235
0	5232	0.0030846744775772095
0	5210	-0.004258229397237301
0	5238	0.005440837237983942
0	5288	0.009750770404934883
0	5334	0.008995971642434597
0	5274	-0.011760247871279716
0	5310	0.007067877799272537
0	5450	0.027482595294713974
0	5364	-0.016848210245370865
0	5386	0.004298330284655094
0	5306	-0.015575919300317764
0	5178	-0.024833794683218002
0	5112	-0.01276941504329443
0	5152	0.007721809204667807
0	5128	-0.004621962085366249
0	5172	0.008454926311969757
0	5204	0.006137322634458542
0	5174	-0.005743972025811672
0	5218	0.008415577001869678
0	5276	0.011084496974945068
0	5278	0.0003818348341155797
0	5462	0.03510065749287605
0	6212	0.14281906187534332
0	8100	0.357232928276062
1	6500	-0.2973535656929016
0	2532	-0.7317073345184326
0	3104	0.1072540208697319
0	4548	0.27441689372062683
0	5514	0.1843675673007965
0	5636	0.023242225870490074
0	5636	0.0
0	5608	-0.005306514445692301
0	5630	0.004158947616815567
0	5644	0.002640081336721778
0	5604	-0.007526247762143612
0	5618	0.0026297334115952253
0	5570	-0.008996850810945034
0	5582	0.0022455649450421333
0	5578	-0.0007479058695025742
0	5594	0.0029876388143748045
0	5620	0.0048486352898180485
0	5634	0.0026057178620249033
0	5670	0.00668151443824172
0	5710	0.007398364599794149
0	5770	0.011059499345719814
0	5830	0.01101604662835598
0	5858	0.005120202898979187
0	5856	-0.0003642766096163541
0	5830	-0.004716068506240845
0	5762	-0.01228886004537344
0	5650	-0.02018139325082302
0	5450	-0.035957854241132736
0	5254	-0.03524123504757881
0	5042	-0.03833819553256035
0	4800	-0.04458528384566307
0	4668	-0.024575818330049515
0	4620	-0.008819745853543282
0	4606	-0.0025487602688372135
0	4628	0.00400378555059433
0	4706	0.014271947555243969
0	4796	0.01656157337129116
0	4854	0.010728290304541588
0	4886	0.005946702789515257
0	4924	0.007094405125826597
0	5018	0.017628304660320282
0	5034	0.003011594759300351
0	5082	0.009068009443581104
0	5114	0.006063974462449551
0	5080	-0.006462076213210821
0	5158	0.014871683903038502
0	5182	0.004588617477566004
0	5182	0.0
0	5204	0.00423022685572505
0	5198	-0.0011571544455364347
0	5182	-0.0030959350988268852
0	5224	0.008157768286764622
0	5178	-0.008969892747700214
0	5238	0.011751801706850529
0	5212	-0.005113077815622091
0	5222	0.001974567538127303
0	5320	0.01941978558897972
0	5308	-0.002383127575740218
0	5324	0.0031804931350052357
0	5448	0.024637393653392792
0	5422	-0.0051520518027246
0	5394	-0.0055256616324186325
0	5366	-0.005499397404491901
0	5260	-0.020717961713671684
0	5110	-0.02919348143041134
0	5066	-0.008536727167665958
0	5112	0.008904029615223408
0	5132	0.003863440128043294
0	5182	0.009641341865062714
0	5202	0.0038492134772241116
0	5182	-0.003842360805720091
0	5232	0.009595823474228382
0	5250	0.003450126387178898
0	5294	0.008424600586295128
0	5624	0.06311199814081192
0	6908	0.2447143793106079
0	7820	0.17190465331077576
1	5178	-0.4898761212825775
0	2582	-0.48135876655578613
0	4022	0.27140793204307556
0	5408	0.26317453384399414
0	5634	0.04285172373056412
0	5658	0.004538864362984896
0	5658	0.0
0	5656	-0.0003761048137675971
0	5630	-0.0048757921904325485
0	5626	-0.0007482136134058237
0	5580	-0.00858807098120451
0	5624	0.008200795389711857
0	5580	-0.008185538463294506
0	5590	0.0018588281236588955
0	5590	0.0
0	5596	0.0011127871694043279
0	5652	0.01037126686424017
0	5656	0.0007390163373202085
0	5722	0.012152906507253647
0	5760	0.006969067268073559
0	5850	0.016440559178590775
0	5858	0.0014550215564668179
0	5860	0.0003622707154136151
0	5826	-0.006134231574833393
0	5764	-0.011142795905470848
0	5642	-0.021856486797332764
0	5474	-0.03002716787159443
0	5214	-0.046420834958553314
0	4974	-0.042954813688993454
0	4800	-0.0315057598054409
0	4648	-0.028033247217535973
0	4566	-0.015172634273767471
0	4582	0.0029247249476611614
0	4606	0.0043721687979996204
0	4658	0.009519392624497414
0	4734	0.01399631705135107
0	4782	0.00889020599424839
0	4852	0.013035382144153118
0	4908	0.010480610653758049
0	4934	0.004888014402240515
0	4994	0.011329161934554577
0	5036	0.007959771901369095
0	5058	0.004184949677437544
0	5088	0.0057257008738815784
0	5132	0.008424600586295128
0	5156	0.004608707968145609
0	5126	-0.005777155980467796
0	5160	0.006569624878466129
0	5142	-0.0034891837276518345
0	5158	0.0031131634023040533
0	5156	-0.00039067078614607453
0	5170	0.0027471089269965887
0	5160	-0.00197109067812562
0	5174	0.002772277221083641
0	5166	-0.0015910054789856076
0	5212	0.009184692054986954
0	5256	0.008810572326183319
0	5308	0.010427667759358883
0	5264	-0.00881787110120058
0	5308	0.008800821378827095
0	5416	0.021529097110033035
0	5350	-0.013089870102703571
0	5348	-0.0003946174110751599
0	5280	-0.013349737040698528
0	5106	-0.03400961682200432
0	5064	-0.008185326121747494
0	5050	-0.002722605364397168
0	5068	0.0034944217186421156
0	5084	0.003101817099377513
0	5072	-0.0023237201385200024
0	5076	0.0007738840067759156
0	5100	0.004640849772840738
0	5182	0.015849698334932327
0	5194	0.002317616483196616
0	5280	0.016598258167505264
0	5852	0.1102926954627037
0	7560	0.32786884903907776
0	7080	-0.09072809666395187
1	3762	-0.6196618676185608
0	2776	-0.1857386827468872
0	4320	0.29526880383491516
0	5382	0.2041810303926468
0	5570	0.0360959991812706
0	5580	0.0019149751169607043
0	5612	0.006112080533057451
0	5584	-0.005332927219569683
0	5564	-0.003800258506089449
0	5560	-0.000758571841288358
0	5526	-0.0064376057125627995
0	5532	0.001134172547608614
0	5510	-0.004152772016823292
0	5486	-0.004527618642896414
0	5500	0.0026388538535684347
0	5540	0.007532389368861914
0	5516	-0.004512069746851921
0	5556	0.007500843610614538
0	5602	0.008599524386227131
0	5626	0.004471327643841505
0	5678	0.009654421359300613
0	5724	0.008509169332683086
0	5734	0.0018424123991280794
0	5710	-0.004403993021696806
0	5660	-0.009140879847109318
0	5566	-0.01713494025170803
0	5402	-0.029827581718564034
0	5216	-0.03380383923649788
0	4970	-0.04488122835755348
0	4816	-0.028546009212732315
0	4652	-0.030830930918455124
0	4578	-0.013834361918270588
0	4576	-0.00036974952672608197
0	4576	0.0
0	4628	0.009646182879805565
0	4696	0.01268814504146576
0	4780	0.01576024480164051
0	4838	0.010938992723822594
0	4922	0.015917330980300903
0	4936	0.0026636901311576366
0	4990	0.010315054096281528
0	4986	-0.0007666947785764933
0	5068	0.015772264450788498
0	5102	0.006558304652571678
0	5132	0.005801062099635601
0	5152	0.003876569913700223
0	5138	-0.002720418618991971
0	5114	-0.004675021395087242
0	5170	0.010939779691398144
0	5132	-0.0074443635530769825
0	5152	0.003930766135454178
0	5182	0.005916537716984749
0	5196	0.002770923776552081
0	5266	0.013903969898819923
0	5250	-0.0031874203123152256
0	5244	-0.0011985456803813577
0	5384	0.02802615612745285
0	5422	0.007608013693243265
0	5324	-0.019593728706240654
0	5352	0.005585032049566507
0	5210	-0.028223508968949318
0	5140	-0.01386175211519003
0	5102	-0.007497139275074005
0	5116	0.002752582309767604
0	5130	0.0027428751345723867
0	5182	0.010154531337320805
0	5202	0.003893272252753377
0	5180	-0.0042709046974778175
0	5264	0.016271082684397697
0	5268	0.0007731062360107899
0	5268	0.0
0	5562	0.056600868701934814
0	6374	0.15575048327445984
0	7944	0.2986494302749634
1	6884	-0.19806666672229767
0	2804	-0.7541403770446777
0	2954	0.028132736682891846
0	3828	0.16618917882442474
0	5102	0.24423909187316895
0	5658	0.10663735121488571
0	5698	0.007646039128303528
0	5728	0.0057146488688886166
0	5710	-0.003416942898184061
0	5692	-0.0034058657474815845
0	5714	0.004151569679379463
0	5698	-0.0030105370096862316
0	5640	-0.010882209986448288
0	5684	0.008242272771894932
0	5654	-0.005610552616417408
0	5678	0.004479227587580681
0	5668	-0.0018625673837959766
0	5682	0.0026002004742622375
0	5694	0.0022212897893041372
0	5694	0.0
0	5766	0.013232213445007801
0	5802	0.006590429227799177
0	5862	0.01094264816492796
0	5902	0.0072659458965063095
0	5908	0.0010851479601114988
0	5854	-0.009728561155498028
0	5814	-0.007181070279330015
0	5758	-0.010020757094025612
0	5534	-0.04003622382879257
0	5352	-0.0326930470764637
0	5156	-0.03576294332742691
0	4942	-0.03946204110980034
0	4820	-0.022205233573913574
0	4738	-0.01475775707513094
0	4714	-0.0042958916164934635
0	4702	-0.0021529297810047865
0	4768	0.011909201741218567
0	4804	0.00653246883302927
0	4862	0.010583683848381042
0	4954	0.016874954104423523
0	4988	0.006264663767069578
0	5076	0.016287045553326607
0	5118	0.007803306914865971
0	5154	0.006710242014378309
0	5212	0.010846663266420364
0	5218	0.0011251687537878752
0	5254	0.006770480424165726
0	5274	0.0037711658515036106
0	5264	-0.0018904306925833225
0	5278	0.002653793664649129
0	5276	-0.0003801124985329807
0	5270	-0.0011438884539529681
0	5250	-0.003825896419584751
0	5268	0.003456796519458294
0	5268	0.0
0	5242	-0.00503420690074563
0	5282	0.007775646634399891
0	5280	-0.00039012718480080366
0	5312	0.006261495407670736
0	5388	0.014892615377902985
0	5414	0.005093644838780165
0	5378	-0.007040876429527998
0	5442	0.012481635436415672
0	5528	0.016704652458429337
0	5422	-0.020484674721956253
0	5444	0.004232233855873346
0	5374	-0.013402431271970272
0	5256	-0.02250562608242035
0	5192	-0.01217146497219801
0	5206	0.002656949684023857
0	5200	-0.0011368803679943085
0	5210	0.0018922670278698206
0	5212	0.00037813378730788827
0	5220	0.0015116396825760603
0	5262	0.007932810112833977
0	5316	0.01019611768424511
0	5276	-0.007548024412244558
0	5434	0.029810570180416107
0	6024	0.1112060472369194
0	7896	0.35116681456565857
1	6474	-0.2624552249908447
0	2374	-0.7511909008026123
0	3112	0.13764889538288116
0	4892	0.33647119998931885
0	5552	0.12505526840686798
0	5664	0.021183501929044724
0	5638	-0.004904549568891525
0	5654	0.003011443419381976
0	5680	0.004882140085101128
0	5652	-0.005245606880635023
0	5640	-0.002244416857138276
0	5636	-0.0007470863638445735
0	5598	-0.007085938472300768
0	5604	0.00111774867400527
0	5626	0.004096478223800659
0	5630	0.0007438723696395755
0	5630	0.0
0	5670	0.007418397814035416
0	5732	0.011469163000583649
0	5784	0.00958737451583147
0	5834	0.009185997769236565
0	5910	0.013908714056015015
0	5898	-0.0021867749746888876
0	5842	-0.010162602178752422
0	5814	-0.005062253680080175
0	5716	-0.01765914261341095
0	5524	-0.03451457992196083
0	5292	-0.041643232107162476
0	5026	-0.04778672009706497
0	4846	-0.03253129497170448
0	4720	-0.02319815382361412
0	4662	-0.010794714093208313
0	4636	-0.00477128429338336
0	4670	0.006181742995977402
0	4724	0.009831290692090988
0	4778	0.009880940429866314
0	4848	0.012878221459686756
0	4884	0.006655327510088682
0	4940	0.010402090847492218
0	5002	0.011569610796868801
0	5056	0.010117664001882076
0	5068	0.002256600419059396
0	5104	0.006793991196900606
0	5164	0.01135861687362194
0	5206	0.007973169907927513
0	5222	0.0030454921070486307
0	5212	-0.0019083726219832897
0	5182	-0.0057403817772865295
0	5232	0.00959717482328415
0	5212	-0.0038511899765580893
0	5220	0.0015461526345461607
0	5216	-0.0007761464803479612
0	5252	0.007016814313828945
0	5212	-0.00782932061702013
0	5278	0.012971698306500912
0	5246	-0.0063114711083471775
0	5272	0.005143965128809214
0	5300	0.005548876244574785
0	5304	0.0007926546968519688
0	5348	0.008703219704329967
0	5304	-0.008674508891999722
0	5378	0.01453317143023014
0	5440	0.01211963314563036
0	5420	-0.0038891839794814587
0	5426	0.0011611104710027575
0	5304	-0.02350281924009323
0	5152	-0.029183626174926758
0	5106	-0.008814737200737
0	5152	0.008802255615592003
0	5134	-0.0034397095441818237
0	5162	0.005346164107322693
0	5168	0.001144834328442812
0	5204	0.006864639464765787
0	5258	0.010290417820215225
0	5264	0.0011426975252106786
0	5278	0.002665312960743904
0	5586	0.05861605331301689
0	6872	0.24416175484657288
0	7822	0.17845959961414337
1	5410	-0.44586852192878723
0	2368	-0.5616414546966553
0	3564	0.22476132214069366
0	5180	0.30686652660369873
0	5566	0.07333198189735413
0	5678	0.021230081096291542
0	5656	-0.004159681499004364
0	5664	0.0015087128849700093
0	5660	-0.0007525020628236234
0	5642	-0.0033786320127546787
0	5602	-0.0074922265484929085
0	5606	0.0007480363710783422
0	5606	0.0
0	5556	-0.009319664910435677
0	5622	0.01229309756308794
0	5632	0.0018602574709802866
0	5626	-0.001114730490371585
0	5652	0.004820885602384806
0	5692	0.007393897511065006
0	5750	0.010682580061256886
0	5820	0.012845607474446297
0	5876	0.010233543813228607
0	5852	-0.0043668122962117195
0	5842	-0.0018119881860911846
0	5774	-0.012274219654500484
0	5668	-0.019074125215411186
0	5492	-0.0315936841070652
0	5276	-0.03872448205947876
0	5046	-0.04131093621253967
0	4786	-0.047215498983860016
0	4638	-0.02737968973815441
0	4578	-0.011152968741953373
0	4580	0.0003667436831165105
0	4592	0.0021868811454623938
0	4652	0.010973602533340454
0	4698	0.008460236713290215
0	4760	0.011471850797533989
0	4834	0.013768295757472515
0	4908	0.013839536346495152
0	4948	0.007516066078096628
0	4982	0.006416547577828169
0	5030	0.009094124659895897
0	5042	0.0022818315774202347
0	5068	0.004961705766618252
0	5128	0.011485745199024677
0	5128	0.0
0	5134	0.0011559356935322285
0	5156	0.004251864738762379
0	5160	0.0007755444967187941
0	5132	-0.005447541829198599
0	5152	0.00390675850212574
0	5182	0.00588573794811964
0	5152	-0.005912573076784611
0	5152	0.0
0	5174	0.004375845193862915
0	5176	0.00039939291309565306
0	5194	0.003606347134336829
0	5196	0.0004015043086837977
0	5264	0.01365845836699009
0	5270	0.0012034015962854028
0	5298	0.005597760900855064
0	5270	-0.005573248490691185
0	5306	0.007132855709642172
0	5404	0.019324561581015587
0	5384	-0.003922850359231234
0	5352	-0.006246665026992559
0	5302	-0.009719055145978928
0	5156	-0.02828032337129116
0	5064	-0.017783503979444504
0	5058	-0.0011586291948333383
0	5074	0.0030874917283654213
0	5096	0.004242790397256613
0	5072	-0.004626535810530186
0	5094	0.004240173380821943
0	5134	0.007708118762820959
0	5164	0.005780866835266352
0	5212	0.0092472480610013
0	5362	0.028883183375000954
0	6082	0.13845621049404144
0	7712	0.31160789728164673
1	5996	-0.32274243235588074
0	2288	-0.6937237977981567
0	3008	0.137179434299469
0	4394	0.267715722322464
0	5398	0.19488081336021423
0	5566	0.03256234526634216
0	5588	0.004253399558365345
0	5586	-0.0003856933326460421
0	5570	-0.0030778306536376476
0	5564	-0.0011519263498485088
0	5560	-0.0007665086886845529
0	5532	-0.005356595851480961
0	5476	-0.010695323348045349
0	5498	0.004197191447019577
0	5476	-0.004194684326648712
0	5496	0.0038111209869384766
0	5540	0.008376803249120712
0	5576	0.006843412760645151
0	5592	0.003033443819731474
0	5606	0.0026454359758645296
0	5642	0.0067791505716741085
0	5710	0.012759569101035595
0	5720	0.0018692287849262357
0	5724	0.0007446848321706057
0	5696	-0.005192493088543415
0	5650	-0.008500991389155388
0	5562	-0.016214223578572273
0	5352	-0.03861003741621971
0	5174	-0.032728612422943115
0	5006	-0.031062791123986244
0	4832	-0.032717835158109665
0	4714	-0.02235102467238903
0	4650	-0.011939704418182373
0	4642	-0.001477377605624497
0	4664	0.004056595731526613
0	4678	0.0025931689888238907
0	4700	0.004097444470971823
0	4812	0.020975353196263313
0	4872	0.011291354894638062
0	4908	0.006804607342928648
0	4962	0.010249272920191288
0	5014	0.009907152503728867
0	5052	0.007263737265020609
0	5098	0.008816764689981937
0	5152	0.010376633144915104
0	5176	0.004621427971869707
0	5182	0.0011577350087463856
0	5182	0.0
0	5164	-0.003490085480734706
0	5180	0.003110903548076749
0	5216	0.0070189121179282665
0	5220	0.0007820443133823574
0	5196	-0.004707297310233116
0	5242	0.009053335525095463
0	5268	0.00513333547860384
0	5282	0.002771911444142461
0	5266	-0.003175611374899745
0	5382	0.02306835725903511
0	5428	0.009145977906882763
0	5364	-0.012703454121947289
0	5308	-0.011089256033301353
0	5258	-0.00987011007964611
0	5134	-0.02439056523144245
0	5132	-0.00039215170545503497
0	5152	0.003908998798578978
0	5138	-0.002727627055719495
0	5152	0.0027195026632398367
0	5182	0.005810500122606754
0	5212	0.005796653684228659
0	5248	0.006940784864127636
0	5268	0.0038475841283798218
0	5294	0.0049920640885829926
0	5516	0.042548298835754395
0	6452	0.17886261641979218
0	8046	0.3019968867301941
1	6544	-0.2794592082500458
0	2552	-0.7364951372146606
0	3126	0.10763979703187943
0	4156	0.19566620886325836
0	5494	0.25580891966819763
0	5656	0.03091052547097206
0	5704	0.009133115410804749
0	5668	-0.006828873418271542
0	5710	0.007943312637507915
0	5686	-0.0045256828889250755
0	5692	0.0011284558568149805
0	5622	-0.013131566345691681
0	5624	0.000374354247469455
0	5610	-0.0026165288873016834
0	5642	0.00597386434674263
0	5636	-0.0011181652080267668
0	5644	0.0014878553338348866
0	5690	0.008534745313227177
0	5714	0.004437651019543409
0	5774	0.01105447392910719
0	5798	0.004404962994158268
0	5874	0.013892951421439648
0	5900	0.004732033237814903
0	5848	-0.009423021227121353
0	5824	-0.00433244276791811
0	5700	-0.02230697311460972
0	5594	-0.01901959255337715
0	5352	-0.043344318866729736
0	5174	-0.031912606209516525
0	4918	-0.04625001549720764
0	4768	-0.027619900181889534
0	4698	-0.013031337410211563
0	4664	-0.006246325559914112
0	4716	0.009464066475629807
0	4710	-0.0010883103823289275
0	4776	0.012028430588543415
0	4834	0.01062725204974413
0	4884	0.009210364893078804
0	4948	0.01184629462659359
0	5018	0.013018089346587658
0	5036	0.0033614281564950943
0	5118	0.015375960618257523
0	5172	0.010157630778849125
0	5182	0.0018863891018554568
0	5212	0.005674438551068306
0	5228	0.0030345944687724113
0	5238	0.0019015263533219695
0	5206	-0.006100583355873823
0	5230	0.00458955392241478
0	5214	-0.0030691714491695166
0	5206	-0.0015401003183797002
0	5202	-0.0007729866774752736
0	5222	0.0038817361928522587
0	5248	0.005068489350378513
0	5230	-0.0035226887557655573
0	5252	0.004322257358580828
0	5220	-0.006305418908596039
0	5280	0.011851774528622627
0	5316	0.0071144369430840015
0	5292	-0.004738525487482548
0	5342	0.009847688488662243
0	5472	0.025507867336273193
0	5416	-0.010932659730315208
0	5384	-0.006216811016201973
0	5374	-0.0019343856256455183
0	5272	-0.019646616652607918
0	5132	-0.02688034437596798
0	5128	-0.0007665478042326868
0	5154	0.004974806681275368
0	5166	0.0022930519189685583
0	5198	0.006109046749770641
0	5182	-0.0030513776000589132
0	5242	0.011438013054430485
0	5272	0.005716463550925255
0	5252	-0.0038087982684373856
0	5376	0.023608554154634476
0	6018	0.12211669236421585
0	8018	0.37855368852615356
1	6734	-0.23879486322402954
0	2394	-0.799685537815094
0	2932	0.10087878257036209
0	4430	0.28493532538414
0	5474	0.19955654442310333
0	5646	0.032824426889419556
0	5676	0.0057107326574623585
0	5650	-0.00493533443659544
0	5666	0.003029499901458621
0	5654	-0.0022657469380646944
0	5618	-0.006781278643757105
0	5614	-0.0007520493818446994
0	5618	0.00075053476030007
0	5568	-0.009365517646074295
0	5584	0.00299517042003572
0	5606	0.004114046227186918
0	5590	-0.0029878991190344095
0	5614	0.004475830588489771
0	5652	0.007071697153151035
0	5716	0.01187193114310503
0	5738	0.0040661925449967384
0	5784	0.008471558801829815
0	5848	0.011741970665752888
0	5854	0.0010964510729536414
0	5840	-0.002547956071794033
0	5828	-0.0021760680247098207
0	5778	-0.009036580100655556
0	5664	-0.020538318902254105
0	5468	-0.035250529646873474
0	5244	-0.04041959345340729
0	5010	-0.04294050857424736
0	4826	-0.03412505239248276
0	4638	-0.0343504473567009
0	4594	-0.0079567926004529
0	4618	0.004335782025009394
0	4636	0.0032686861231923103
0	4680	0.008039270527660847
0	4752	0.013235457241535187
0	4820	0.012569315731525421
0	4870	0.009290572255849838
0	4948	0.014564014039933681
0	4986	0.00712500000372529
0	5044	0.010917852632701397
0	5106	0.011712994426488876
0	5154	0.009094583801925182
0	5146	-0.0015198916662484407
0	5138	-0.0015243320958688855
0	5172	0.006497063674032688
0	5210	0.007281925529241562
0	5202	-0.00153737748041749
0	5208	0.001156842103227973
0	5246	0.007351708132773638
0	5218	-0.00543590821325779
0	5246	0.0054581607691943645
0	5226	-0.003914149943739176
0	5210	-0.0031439124140888453
0	5236	0.005129621364176273
0	5260	0.004751973319798708
0	5274	0.002779395319521427
0	5320	0.009144037961959839
0	5396	0.015099938027560711
0	5330	-0.013079667463898659
0	5378	0.009480919688940048
0	5502	0.024373622611165047
0	5452	-0.009769950062036514
0	5424	-0.005441613029688597
0	5356	-0.013148227706551552
0	5254	-0.019636783748865128
0	5168	-0.016503337770700455
0	5158	-0.0019147307612001896
0	5152	-0.001146730501204729
0	5160	0.001526989508420229
0	5194	0.006482528988271952
0	5194	0.0
0	5220	0.004949741065502167
0	5248	0.005328258965164423
0	5260	0.0022820630110800266
0	5314	0.010261347517371178
0	5610	0.05619683861732483
0	6968	0.25717100501060486
0	7934	0.18091921508312225
1	5510	-0.4463869333267212
0	2356	-0.5798788666725159
0	3728	0.25675255060195923
0	5320	0.3007708191871643
0	5630	0.058532532304525375
0	5698	0.012805543839931488
0	5720	0.004130989778786898
0	5706	-0.002621264895424247
0	5686	-0.00373459467664361
0	5676	-0.0018630531849339604
0	5650	-0.004835530184209347
0	5662	0.0022273645736277103
0	5630	-0.005929220002144575
0	5654	0.004443402402102947
0	5634	-0.00369822490029037
0	5640	0.0011080332333222032
0	5640	0.0
0	5666	0.004781755618751049
0	5702	0.00660074083134532
0	5790	0.0160816740244627
0	5800	0.001820388250052929
0	5874	0.013418762944638729
0	5908	0.006140139419585466
0	5856	-0.009350611828267574
0	5760	-0.017197109758853912
0	5732	-0.005000535864382982
0	5574	-0.02813824638724327
0	5348	-0.04018635302782059
0	5138	-0.037399377673864365
0	4926	-0.0381702296435833
0	4744	-0.033371228724718094
0	4636	-0.019895853474736214
0	4568	-0.012354052625596523
0	4602	0.006145763210952282
0	4632	0.005446293391287327
0	4728	0.017534032464027405
0	4790	0.011391335166990757
0	4826	0.006652212236076593
0	4884	0.010775862261652946
0	4942	0.010829650796949863
0	4982	0.007503001019358635
0	5026	0.008287917822599411
0	5094	0.012859952636063099
0	5098	0.0007590324967168272
0	5156	0.011044813320040703
0	5182	0.0049661919474601746
0	5162	-0.0038313197437673807
0	5172	0.0019215248757973313
0	5194	0.004240773152559996
0	5206	0.0023207240737974644
0	5216	0.0019412449328228831
0	5226	0.001948608667589724
0	5230	0.0007827380322851241
0	5216	-0.002751752734184265
0	5244	0.0055266791023314
0	5272	0.005545506253838539
0	5252	-0.0039731417782604694
0	5304	0.01035224087536335
0	5350	0.009160426445305347
0	5334	-0.003181758103892207
0	5346	0.002379882149398327
0	5434	0.017383288592100143
0	5488	0.010611261241137981
0	5444	-0.008594421669840813
0	5436	-0.0015541022876277566
0	5368	-0.013141450472176075
0	5164	-0.03926248103380203
0	5196	0.00614407891407609
0	5178	-0.003447879571467638
0	5154	-0.00458855926990509
0	5198	0.008401008322834969
0	5206	0.0015253591118380427
0	5218	0.002285424154251814
0	5254	0.006850879639387131
0	5256	0.0003802281280513853
0	5282	0.004939835052937269
0	5554	0.05164556950330734
0	6686	0.21440476179122925
0	8191	0.28235337138175964
1	5888	-0.42411741614341736
0	2464	-0.6279304027557373
0	3182	0.13392773270606995
0	4868	0.3185359239578247
0	5546	0.1283872127532959
0	5656	0.020786484703421593
0	5676	0.003769578179344535
0	5654	-0.004136038012802601
0	5640	-0.0026254102122038603
0	5638	-0.00037427249480970204
0	5606	-0.005977621302008629
0	5618	0.002237817971035838
0	5594	-0.004468081519007683
0	5562	-0.0059515321627259254
0	5574	0.0022308011539280415
0	5560	-0.0026005064137279987
0	5574	0.0025985112879425287
0	5602	0.005190407391637564
0	5622	0.003697427222505212
0	5676	0.00995691493153572
0	5688	0.0022058957256376743
0	5774	0.0157573614269495
0	5758	-0.002921324921771884
0	5750	-0.0014557718532159925
0	5696	-0.009794851765036583
0	5640	-0.01013055071234703
0	5490	-0.027072718366980553
0	5306	-0.03316769376397133
0	5118	-0.03393930941820145
0	4902	-0.039365533739328384
0	4724	-0.03310149908065796
0	4668	-0.010489641688764095
0	4618	-0.009238614700734615
0	4632	0.0025641340762376785
0	4634	0.0003668333520181477
0	4680	0.008484476245939732
0	4768	0.01632915623486042
0	4810	0.007837478071451187
0	4888	0.014632132835686207
0	4968	0.015078218653798103
0	4992	0.0045425863936543465
0	5044	0.009880546480417252
0	5078	0.006483930163085461
0	5098	0.003826628439128399
0	5096	-0.0003837985568679869
0	5136	0.007699513807892799
0	5128	-0.001544103492051363
0	5178	0.00967841874808073
0	5154	-0.004658385179936886
0	5152	-0.0003893777902703732
0	5164	0.0023442385718226433
0	5194	0.005880661774426699
0	5208	0.0027547485660761595
0	5218	0.0019748015329241753
0	5228	0.001981741515919566
0	5350	0.02425222285091877
0	5386	0.007170172408223152
0	5310	-0.015147488564252853
0	5316	0.0011958226095885038
0	5228	-0.017515690997242928
0	5080	-0.02939463034272194
0	5064	-0.0031703258864581585
0	5062	-0.0003952569095417857
0	5100	0.007487980183213949
0	5086	-0.0027502751909196377
0	5152	0.01292731985449791
0	5140	-0.0023432006128132343
0	5174	0.0066230325028300285
0	5204	0.005830072797834873
0	5224	0.0038787752855569124
0	5326	0.019749071449041367
0	6014	0.13292288780212402
0	7428	0.27149146795272827
0	7544	0.021942269057035446
1	4088	-0.6437991857528687
0	2816	-0.23844635486602783
0	3522	0.13429200649261475
0	4904	0.26558196544647217
0	5510	0.11666110903024673
0	5610	0.019207129254937172
0	5666	0.010724545456469059
0	5662	-0.00076359196100384
0	5648	-0.002664636354893446
0	5642	-0.0011388080893084407
0	5602	-0.007571742404252291
0	5634	0.006043132860213518
0	5628	-0.0011310653062537313
0	5614	-0.002635145327076316
0	5612	-0.0003757326921913773
0	5636	0.004500450100749731
0	5616	-0.003740835003554821
0	5656	0.007456751074641943
0	5684	0.005200594197958708
0	5728	0.00814101193100214
0	5782	0.009952694177627563
0	5808	0.004771634470671415
0	5860	0.00950512383133173
0	5848	-0.0021839095279574394
0	5818	-0.0054375408217310905
0	5716	-0.018419310450553894
0	5638	-0.014043763279914856
0	5462	-0.03162926435470581
0	5208	-0.04579821974039078
0	4990	-0.03983869403600693
0	4826	-0.030444039031863213
0	4708	-0.021805280819535255
0	4658	-0.00913308747112751
0	4668	0.0018140699248760939
0	4656	-0.002179994946345687
0	4698	0.007669645361602306
0	4778	0.01469040010124445
0	4808	0.005539007019251585
0	4914	0.01967456564307213
0	4936	0.00410202844068408
0	5016	0.014982209540903568
0	5082	0.012405703775584698
0	5132	0.00943087786436081
0	5182	0.009460379369556904
0	5182	0.0
0	5218	0.006848706863820553
0	5200	-0.0034334545489400625
0	5244	0.00841514766216278
0	5192	-0.00997136440128088
0	5228	0.006925030145794153
0	5220	-0.001543845166452229
0	5212	-0.0015494467224925756
0	5230	0.003499721409752965
0	5252	0.00429497379809618
0	5232	-0.0039197239093482494
0	5228	-0.0007869575056247413
0	5254	0.005131646525114775
0	5312	0.011476512998342514
0	5326	0.002772936364635825
0	5334	0.0015833014622330666
0	5448	0.022510958835482597
0	5446	-0.00039331885636784136
0	5420	-0.00508852768689394
0	5380	-0.007789780385792255
0	5248	-0.025588007643818855
0	5182	-0.012745250016450882
0	5152	-0.005775302182883024
0	5158	0.0011522950371727347
0	5128	-0.0057485951110720634
0	5182	0.010333346202969551
0	5244	0.011845625005662441
0	5238	-0.0011446885764598846
0	5250	0.002287108451128006
0	5272	0.004189890809357166
0	5400	0.024363627657294273
0	5924	0.09960083663463593
0	7462	0.29103800654411316
0	7484	0.004104529041796923
1	4726	-0.507489025592804
0	2588	-0.39453285932540894
0	4148	0.2926243543624878
0	5422	0.2405891865491867
0	5608	0.03507889434695244
0	5668	0.01128894742578268
0	5658	-0.0018765951972454786
0	5676	0.0033688938710838556
0	5650	-0.004852617625147104
0	5636	-0.0026065262500196695
0	5618	-0.0033445232547819614
0	5614	-0.000741885625757277
0	5612	-0.00037030180101282895
0	5634	0.004069201182574034
0	5620	-0.0025864935014396906
0	5618	-0.0003690445446409285
0	5646	0.005159071180969477
0	5668	0.004043671768158674
0	5720	0.009529395028948784
0	5760	0.00730495760217309
0	5814	0.009825685061514378
0	5894	0.014496255666017532
0	5892	-0.00036085452302359045
0	5884	-0.001437814556993544
0	5778	-0.01897759735584259
0	5668	-0.019631871953606606
0	5510	-0.028132231906056404
0	5280	-0.040925268083810806
0	5042	-0.04251113533973694
0	4862	-0.03262130171060562
0	4742	-0.022097548469901085
0	4656	-0.015835020691156387
0	4630	-0.004727330058813095
0	4614	-0.002900652587413788
0	4668	0.009837737306952477
0	4712	0.008061954751610756
0	4792	0.014744188636541367
0	4858	0.012229016050696373
0	4942	0.01564323529601097
0	4982	0.0074820430018007755
0	5028	0.008639578707516193
0	5058	0.00565539812669158
0	5098	0.007566967513412237
0	5134	0.006832416169345379
0	5152	0.0034270482137799263
0	5162	0.0019095874158665538
0	5182	0.00383029249496758
0	5180	-0.0003841671859845519
0	5182	0.0003853713278658688
0	5226	0.008507566526532173
0	5230	0.0007760861772112548
0	5222	-0.0015580570325255394
0	5182	-0.007824419997632504
0	5230	0.009432973340153694
0	5266	0.007105169352144003
0	5282	0.003168526105582714
0	5296	0.00277954270131886
0	5336	0.007952813990414143
0	5330	-0.0011924795107915998
0	5444	0.02261396311223507
0	5472	0.005533013958483934
0	5394	-0.01533963531255722
0	5390	-0.0007828605594113469
0	5296	-0.018306458368897438
0	5172	-0.02404250204563141
0	5170	-0.0003865231992676854
0	5130	-0.0077077229507267475
0	5130	0.0
0	5182	0.009980934672057629
0	5210	0.005366109311580658
0	5168	-0.00803745724260807
0	5214	0.008795074187219143
0	5274	0.011460443027317524
0	5290	0.0030526972841471434
0	5628	0.0644243061542511
0	7072	0.2744029760360718
0	7450	0.07097258418798447
1	4604	-0.5268809199333191
0	2514	-0.38830262422561646
0	3858	0.25389787554740906
0	5350	0.28430598974227905
0	5648	0.056741729378700256
0	5678	0.005696851294487715
0	5696	0.0034074129071086645
0	5678	-0.0033974230755120516
0	5666	-0.0022590928710997105
0	5636	-0.005634155590087175
0	5650	0.0026236881967633963
0	5612	-0.007107497658580542
0	5606	-0.0011202668538317084
0	5588	-0.0033574155531823635
0	5600	0.002236663829535246
0	5624	0.00446760980412364
0	5666	0.007806981913745403
0	5682	0.002967285690829158
0	5728	0.008504134602844715
0	5786	0.010685860179364681
0	5816	0.005504990927875042
0	5858	0.007674783933907747
0	5866	0.0014558689435943961
0	5854	-0.002175147645175457
0	5758	-0.017329353839159012
0	5666	-0.016553113237023354
0	5522	-0.025848452001810074
0	5306	-0.03871893137693405
0	5084	-0.03987116739153862
0	4904	-0.03271735832095146
0	4732	-0.031753066927194595
0	4658	-0.013650449924170971
0	4612	-0.008375006727874279
0	4642	0.005437081214040518
0	4672	0.00546043599024415
0	4722	0.009154938161373138
0	4790	0.012523789890110493
0	4826	0.006667324807494879
0	4918	0.01712881214916706
0	4946	0.0052374303340911865
0	5038	0.017283054068684578
0	5074	0.0067889513447880745
0	5078	0.0007568877190351486
0	5108	0.005695625673979521
0	5134	0.004951248876750469
0	5170	0.006875915452837944
0	5200	0.005746539682149887
0	5166	-0.006532180588692427
0	5172	0.0011565596796572208
0	5182	0.0019345104228705168
0	5168	-0.0027189040556550026
0	5182	0.0027303576935082674
0	5202	0.003917727619409561
0	5258	0.01101740449666977
0	5298	0.007900454103946686
0	5276	-0.00435844948515296
0	5360	0.01668432168662548
0	5444	0.016702236607670784
0	5396	-0.009535413235425949
0	5374	-0.004361387342214584
0	5344	-0.005928932223469019
0	5168	-0.034643396735191345
0	5132	-0.007062516175210476
0	5098	-0.006647549569606781
0	5170	0.014035452157258987
0	5170	0.0
0	5176	0.0011624753242358565
0	5212	0.0069575076922774315
0	5218	0.001156708225607872
0	5246	0.005387585610151291
0	5266	0.003840884892269969
0	5312	0.008821160532534122
0	5798	0.09305591136217117
0	7306	0.2874206006526947
0	7826	0.09774558991193771
1	5134	-0.49762770533561707
0	2678	-0.4541028141975403
0	3242	0.10592743009328842
0	4392	0.21862009167671204
0	5444	0.20098327100276947
0	5598	0.029372496530413628
0	5596	-0.00038042099913582206
0	5678	0.015556426718831062
0	5664	-0.002648004563525319
0	5630	-0.006414448842406273
0	5614	-0.003012274857610464
0	5624	0.001878686947748065
0	5598	-0.004876524209976196
0	5592	-0.0011242692125961185
0	5574	-0.003368683625012636
0	5586	0.002242990769445896
0	5600	0.002612882759422064
0	5608	0.001489073853008449
0	5640	0.00593875627964735
0	5696	0.010358094237744808
0	5722	0.004793569445610046
0	5776	0.009922214783728123
0	5760	-0.0029291510581970215
0	5740	-0.0036492354702204466
0	5726	-0.0025463805068284273
0	5630	-0.01741022802889347
0	5550	-0.01447666808962822
0	5316	-0.0422835499048233
0	5064	-0.045668721199035645
0	4906	-0.029026687145233154
0	4744	-0.030303409323096275
0	4678	-0.012375928461551666
0	4644	-0.006296762730926275
0	4654	0.001836097682826221
0	4694	0.007332632318139076
0	4732	0.006998072378337383
0	4796	0.011849218048155308
0	4866	0.013024386949837208
0	4862	-0.0007480177446268499
0	4984	0.022929169237613678
0	5032	0.009057970717549324
0	5098	0.012500474229454994
0	5152	0.010261737741529942
0	5168	0.003049129154533148
0	5182	0.0026751933619379997
0	5234	0.009961304254829884
0	5226	-0.0015359605895355344
0	5182	-0.008468052372336388
0	5182	0.0
0	5168	-0.002709747524932027
0	5168	0.0
0	5196	0.005457593128085136
0	5210	0.002739118644967675
0	5222	0.0023562677670270205
0	5216	-0.001182141830213368
0	5198	-0.00355834374204278
0	5246	0.009516005404293537
0	5322	0.015097337774932384
0	5276	-0.009137499146163464
0	5288	0.0023803540971130133
0	5450	0.03205381706357002
0	5418	-0.006302272900938988
0	5366	-0.010191681794822216
0	5302	-0.012484719045460224
0	5236	-0.012820844538509846
0	5126	-0.02129334583878517
0	5092	-0.00656488910317421
0	5116	0.004625228233635426
0	5164	0.009235624223947525
0	5214	0.009601843543350697
0	5180	-0.006519654765725136
0	5218	0.0072797867469489574
0	5224	0.0011485598515719175
0	5276	0.009949613362550735
0	5336	0.011472421698272228
0	5702	0.06991314888000488
0	6950	0.23768411576747894
0	7658	0.1333802193403244
1	4950	-0.5023497343063354
0	2480	-0.4588576555252075
0	4286	0.3411838710308075
0	5606	0.25076305866241455
0	5658	0.009852963499724865
0	5684	0.004912581294775009
