0	6174	-0.0063888696022331715
0	6174	0.0
0	6130	-0.007761601358652115
0	6118	-0.002109729452058673
0	6084	-0.0059559959918260574
0	6136	0.00907356571406126
0	5908	-0.03962507098913193
0	5688	-0.03813706338405609
0	5746	0.010042362846434116
0	5730	-0.0027660285122692585
0	5822	0.015881601721048355
0	5782	-0.006894016172736883
0	5636	-0.0251409150660038
0	5440	-0.0339546799659729
0	5182	-0.044643886387348175
0	4978	-0.03444898501038551
0	4860	-0.019506927579641342
0	4790	-0.011509750969707966
0	4756	-0.005623924545943737
0	4758	0.0003343810385558754
0	4838	0.013537600636482239
0	4824	-0.002396822441369295
0	4906	0.014204218052327633
0	5012	0.018559806048870087
0	5068	0.009899239987134933
0	5134	0.011770300567150116
0	5170	0.006471018306910992
0	5244	0.013401265256106853
0	5258	0.0025517952162772417
0	5292	0.006236396264284849
0	5358	0.012174276635050774
0	5358	0.0
0	5376	0.0033539121504873037
0	5376	0.0
0	5392	0.003009215695783496
0	5414	0.00415570056065917
0	5408	-0.0011385487159714103
0	5382	-0.0049493638798594475
0	5352	-0.0057219150476157665
0	5306	-0.008795634843409061
0	5370	0.012270566076040268
0	5416	0.008845020085573196
0	5522	0.020429927855730057
0	5524	0.0003857528790831566
0	5542	0.0034699016250669956
0	5564	0.004231202881783247
0	5542	-0.004215367138385773
0	5580	0.007249510381370783
0	5560	-0.0037964589428156614
0	5584	0.004532692022621632
0	5580	-0.0007515406468883157
0	5564	-0.0029922574758529663
0	5568	0.0007446293602697551
0	5532	-0.006674247328191996
0	5538	0.0011088113533332944
0	5544	0.001105610397644341
0	5536	-0.0014704441418871284
0	5558	0.004034673795104027
0	5528	-0.0054912869818508625
0	5570	0.007675157859921455
0	5544	-0.004743256140500307
0	5556	0.0021867218893021345
0	5570	0.002548110904172063
0	5568	-0.0003635878674685955
0	5582	0.0025421574246138334
0	5574	-0.0014509926550090313
0	5612	0.0068855551071465015
0	5698	0.015563920140266418
0	5734	0.006502733565866947
0	5722	-0.002162603661417961
0	5628	-0.01689816825091839
0	5552	-0.01364125870168209
0	5462	-0.01614098809659481
0	5426	-0.00645871227607131
0	5468	0.007539582904428244
0	5462	-0.0010775603586807847
0	5492	0.005391093902289867
0	5494	0.0003595139132812619
0	5478	-0.002877594204619527
0	5526	0.008637028746306896
0	5866	0.06120024621486664
0	6802	0.1681920439004898
1	5200	-0.2857482433319092
0	544	-0.8323103785514832
0	1546	0.1846051812171936
0	4166	0.4948313236236572
0	5984	0.3463648855686188
0	6764	0.14818379282951355
0	6908	0.027149664238095284
0	6950	0.007850565016269684
0	6856	-0.01742052659392357
0	6764	-0.016912801191210747
0	6684	-0.014598717913031578
0	6540	-0.026100825518369675
0	6498	-0.007568294648081064
0	6386	-0.020071685314178467
0	6340	-0.008203933015465736
0	6298	-0.007458269130438566
0	6220	-0.013802052475512028
0	6196	-0.004234646447002888
0	6158	-0.006686216685920954
0	6132	-0.00456060329452157
0	6098	-0.005943709518760443
0	6066	-0.0055734240449965
0	6066	0.0
0	6036	-0.0051877982914447784
0	6010	-0.004481264855712652
0	5938	-0.012372834607958794
0	5812	-0.02159753255546093
0	5762	-0.00855412520468235
0	5610	-0.02596958912909031
0	5480	-0.022243261337280273
0	5266	-0.03689400851726532
0	5068	-0.034122634679079056
0	4934	-0.02250814624130726
0	4832	-0.016814110800623894
0	4712	-0.019709181040525436
0	4682	-0.004961848724633455
0	4722	0.006692619062960148
0	4786	0.010840353555977345
0	4810	0.004115414340049028
0	4900	0.01561542134732008
0	4944	0.0077174026519060135
0	5050	0.018783003091812134
0	5086	0.0064357733353972435
0	5168	0.014783654361963272
0	5266	0.017798548564314842
0	5296	0.005484193563461304
0	5288	-0.0014714357675984502
0	5344	0.010359244421124458
0	5344	0.0
0	5406	0.011588207446038723
0	5418	0.0022530697751790285
0	5462	0.008296564221382141
0	5468	0.0011356610339134932
0	5524	0.010639645159244537
0	5546	0.004193458240479231
0	5622	0.014529326930642128
0	5596	-0.004980588331818581
0	5558	-0.007289375178515911
0	5530	-0.005378134083002806
0	5534	0.0007686985773034394
0	5472	-0.011910708621144295
0	5488	0.003069681813940406
0	5456	-0.006122917868196964
0	5464	0.0015256500337272882
0	5476	0.002279317704960704
0	5458	-0.003402517642825842
0	5350	-0.02031577192246914
0	5432	0.015364437364041805
0	5516	0.01567593216896057
0	5544	0.0052024624310433865
0	5490	-0.009993460960686207
0	5486	-0.0007377714500762522
0	5404	-0.015083881095051765
0	5374	-0.005507753696292639
0	5374	0.0
0	5404	0.005497190169990063
0	5416	0.0021974267438054085
0	5466	0.00914879608899355
0	5472	0.001097039203159511
0	5472	0.0
0	5496	0.0043829744681715965
0	5506	0.0018253725720569491
0	5524	0.003284791484475136
0	5682	0.028823351487517357
0	5692	0.001822511781938374
0	5616	-0.013838814571499825
0	5550	-0.012018355540931225
0	5452	-0.017850419506430626
0	5420	-0.0058324625715613365
0	5398	-0.0040124994702637196
0	5478	0.014602980576455593
0	5518	0.007301224395632744
0	5492	-0.004744929727166891
0	5556	0.011677268892526627
0	5580	0.004376527387648821
0	5664	0.015308167785406113
0	6474	0.14742998778820038
0	5970	-0.09111287444829941
1	4126	-0.3322801887989044
0	516	-0.6559819579124451
0	2646	0.3992053270339966
0	5064	0.4613799452781677
0	6482	0.27129754424095154
0	6900	0.07942741364240646
0	6942	0.00790434516966343
0	6866	-0.01416377816349268
0	6818	-0.008865030482411385
0	6672	-0.026733724400401115
0	6596	-0.013814497739076614
0	6518	-0.014082134701311588
0	6440	-0.013994043692946434
0	6368	-0.012845062650740147
0	6272	-0.017039403319358826
0	6246	-0.00459450576454401
0	6204	-0.007397318258881569
0	6212	0.0014047904405742884
0	6216	0.0006999533507041633
0	6158	-0.010110048577189445
0	6254	0.016665508970618248
0	6250	-0.0006910610827617347
0	6268	0.003094591200351715
0	6206	-0.010611109435558319
0	6060	-0.024889757856726646
0	6004	-0.009516041725873947
0	5834	-0.028814861550927162
0	5718	-0.01963372901082039
0	5534	-0.03113367222249508
0	5344	-0.03232025355100632
0	5264	-0.013657004572451115
0	5108	-0.026459813117980957
0	4936	-0.028435392305254936
0	4766	-0.02775449864566326
0	4612	-0.025183148682117462
0	4690	0.012886456213891506
0	4704	0.0023414501920342445
0	4734	0.0050807842053473
0	4838	0.0178279597312212
0	4880	0.007282142527401447
0	4824	-0.009811135940253735
0	4938	0.02018151618540287
0	5044	0.01894187554717064
0	5086	0.0075682043097913265
0	5134	0.008716496638953686
0	5238	0.01901673711836338
0	5358	0.022078033536672592
0	5466	0.019973861053586006
0	5418	-0.008918286301195621
0	5362	-0.010456344112753868
0	5294	-0.012760207988321781
0	5328	0.006418646313250065
0	5578	0.04747135564684868
0	5546	-0.006102987565100193
0	5508	-0.007277834229171276
0	5404	-0.01998872496187687
0	5314	-0.017364684492349625
0	5402	0.017035774886608124
0	5386	-0.0031037423759698868
0	5428	0.008155128918588161
0	5592	0.03182653337717056
0	5548	-0.008520746603608131
0	5490	-0.01120008248835802
0	5480	-0.0019241870613768697
0	5592	0.021452652290463448
0	5650	0.01104032900184393
0	5676	0.004919149447232485
0	5710	0.006393541116267443
0	5666	-0.008223684504628181
0	5640	-0.00483451085165143
0	5678	0.007032695692032576
0	5712	0.006259435322135687
0	5656	-0.01026092004030943
0	5716	0.01095290295779705
0	5520	-0.0356428436934948
0	5162	-0.06495077162981033
0	5368	0.037391092628240585
0	5406	0.006896969396620989
0	5544	0.025055984035134315
0	5558	0.0025399744044989347
0	5474	-0.015221803449094296
0	5400	-0.01339512038975954
0	5456	0.010132445953786373
0	5512	0.010139906778931618
0	5512	0.0
0	5500	-0.002173230517655611
0	5956	0.08253493905067444
0	6716	0.13702745735645294
1	5216	-0.268329918384552
0	1022	-0.7510117292404175
0	2584	0.2872590720653534
0	4942	0.44179365038871765
0	6350	0.26480433344841003
0	6848	0.09315724670886993
0	6922	0.013725562952458858
0	6910	-0.0022076137829571962
0	6846	-0.011683664284646511
0	6686	-0.02900267019867897
0	6508	-0.032076310366392136
0	6478	-0.0053789145313203335
0	6464	-0.0024976511485874653
0	6340	-0.022019129246473312
0	6242	-0.017337767407298088
0	6092	-0.026446010917425156
0	5956	-0.023924848064780235
0	5884	-0.012633795849978924
0	5734	-0.026209723204374313
0	5900	0.028943728655576706
0	6044	0.025035930797457695
0	6326	0.048887040466070175
0	6450	0.021401450037956238
0	6310	-0.024028010666370392
0	6090	-0.03756274655461311
0	5920	-0.028921401128172874
0	5720	-0.03394663706421852
0	5624	-0.016275232657790184
0	5552	-0.012197877280414104
0	5434	-0.02003667689859867
0	5206	-0.03899791091680527
0	5054	-0.026000091806054115
0	4892	-0.02708788588643074
0	4884	-0.0013206840958446264
0	4902	0.00297248805873096
0	4832	-0.011652554385364056
0	4834	0.00033669653930701315
0	4820	-0.00238481885753572
0	4868	0.00827472098171711
0	4892	0.004184927325695753
0	4902	0.0017620937433093786
0	4960	0.010317469947040081
0	4988	0.00502608809620142
0	5080	0.01666143536567688
0	5172	0.016789138317108154
0	5248	0.013960151933133602
0	5344	0.017725476995110512
0	5334	-0.0018533848924562335
0	5390	0.01041434146463871
0	5402	0.0022364137694239616
0	5380	-0.004112815950065851
0	5412	0.0060071335174143314
0	5404	-0.0015104219783097506
0	5394	-0.001900538569316268
0	5448	0.0103228110820055
0	5482	0.0065262457355856895
0	5526	0.00846946518868208
0	5486	-0.00770910969004035
0	5476	-0.0019289874471724033
0	5406	-0.01350951474159956
0	5410	0.0007721113506704569
0	5348	-0.011952037923038006
0	5372	0.004617870785295963
0	5468	0.01841479167342186
0	5358	-0.021021787077188492
0	5496	0.026296399533748627
0	5512	0.003036053152754903
0	5530	0.0034009749069809914
0	5544	0.0026334270369261503
0	5612	0.012736945413053036
0	5604	-0.0014917580410838127
0	5522	-0.015224090777337551
0	5542	0.0037003234028816223
0	5752	0.038721099495887756
0	5796	0.008079621009528637
0	5840	0.00804887805134058
0	6016	0.03207971155643463
0	6090	0.013433215208351612
0	6000	-0.016263296827673912
0	5748	-0.04537052661180496
0	5812	0.011498796753585339
0	5660	-0.02723916620016098
0	5458	-0.03614586964249611
0	5480	0.00393541157245636
0	5576	0.017163904383778572
0	5296	-0.05002322420477867
0	5130	-0.02968951128423214
0	5286	0.02796701341867447
0	5224	-0.011128394864499569
0	5214	-0.0017976128729060292
0	6246	0.1857273131608963
1	4724	-0.2725449502468109
0	956	-0.6772593259811401
0	1012	0.010338970459997654
0	3866	0.5417752861976624
0	6090	0.4262060523033142
0	6754	0.12676756083965302
0	6986	0.043944939970970154
0	7040	0.010135388933122158
0	7018	-0.004090942908078432
0	6892	-0.023227518424391747
0	6838	-0.009876483120024204
0	6740	-0.017781326547265053
0	6642	-0.017653416842222214
0	6570	-0.012900914065539837
0	6430	-0.02496968023478985
0	6328	-0.01812860555946827
0	6240	-0.015611509792506695
0	6174	-0.011698256246745586
0	6112	-0.010977985337376595
0	6076	-0.0063606491312384605
0	6100	0.004233849700540304
0	6082	-0.0031671926844865084
0	6102	0.0035062702372670174
0	6036	-0.011528787203133106
0	5942	-0.01637592539191246
0	5780	-0.02811686508357525
0	5654	-0.02178674377501011
0	5494	-0.027607150375843048
0	5166	-0.05650690570473671
0	4896	-0.04652765765786171
0	4848	-0.00833622831851244
0	4868	0.0034709367901086807
0	4796	-0.012218853458762169
0	4828	0.005316792521625757
0	4872	0.0072718458250164986
0	4750	-0.020299050956964493
0	4842	0.015479528345167637
0	4972	0.022139467298984528
0	4930	-0.007237718906253576
0	4992	0.01081395335495472
0	5070	0.013756614178419113
0	5182	0.01996055245399475
0	5366	0.03309868648648262
0	5334	-0.005800674203783274
0	5432	0.017898235470056534
0	5482	0.009187573567032814
0	5464	-0.0033247547689825296
0	5464	0.0
0	5398	-0.012303333729505539
0	5380	-0.003370407735928893
0	5370	-0.0018806183943524957
0	5358	-0.00226711668074131
0	5330	-0.005314168985933065
0	5308	-0.004195910878479481
0	5328	0.003832200774922967
0	5352	0.004616745747625828
0	5350	-0.000385787570849061
0	5422	0.013915552757680416
0	5484	0.011988398618996143
0	5542	0.011192013509571552
0	5656	0.02190706878900528
0	5712	0.01070595532655716
0	5844	0.0251004658639431
0	5938	0.017756622284650803
0	5932	-0.0011255346471443772
0	5868	-0.011926651000976562
0	5584	-0.0525594986975193
0	5310	-0.050477758049964905
0	5344	0.00625068973749876
0	5630	0.05244626849889755
0	5596	-0.006210650317370892
0	5554	-0.007647487334907055
0	5550	-0.00072669138899073
0	5520	-0.005444119218736887
0	5502	-0.003262800397351384
0	5494	-0.001449520350433886
0	5606	0.02029181458055973
0	5574	-0.005792693700641394
0	5484	-0.016281144693493843
0	5462	-0.003977772779762745
0	5434	-0.005060119088739157
0	5308	-0.022761760279536247
0	5416	0.019515957683324814
0	5396	-0.0036121949087828398
0	5470	0.013358043506741524
0	5422	-0.008657279424369335
0	5444	0.0039662509225308895
0	5498	0.009729847311973572
0	5522	0.004322403110563755
0	5624	0.018366023898124695
0	6510	0.1594538390636444
0	5722	-0.1410938948392868
1	4318	-0.25137564539909363
0	1100	-0.5814542174339294
0	3488	0.44443342089653015
0	5562	0.3919370174407959
0	6416	0.16169750690460205
0	6640	0.04219091311097145
0	6646	0.0011207552161067724
0	6484	-0.030017048120498657
0	6432	-0.009584547020494938
0	6280	-0.027873201295733452
0	6090	-0.03468756750226021
0	6208	0.02147224359214306
0	6008	-0.03624238818883896
0	6002	-0.0010839586611837149
0	6078	0.013688267208635807
0	6258	0.03232797607779503
0	6096	-0.028976520523428917
0	5882	-0.03813846409320831
0	5970	0.015644073486328125
0	6046	0.013468013145029545
0	6074	0.004940362647175789
0	6024	-0.008788066916167736
0	6054	0.005253511015325785
0	6174	0.020942652598023415
0	6062	-0.019461337476968765
0	6072	0.001731421798467636
0	5978	-0.016221625730395317
0	5750	-0.03924313560128212
0	5602	-0.025455212220549583
0	5360	-0.04184052348136902
0	5190	-0.029453551396727562
0	5044	-0.025168653577566147
0	4902	-0.023936618119478226
0	4868	-0.005686125718057156
0	4916	0.008058648556470871
0	4986	0.01185168419033289
0	5068	0.014014218933880329
0	5014	-0.009312592446804047
0	5080	0.011479059234261513
0	5078	-0.00035059836227446795
0	5144	0.011651582084596157
0	5182	0.006746041588485241
0	5210	0.0050011309795081615
0	5240	0.005383934359997511
0	5294	0.009735459461808205
0	5240	-0.009781545028090477
0	5158	-0.014945322647690773
0	5208	0.009165231138467789
0	5340	0.024296268820762634
0	5396	0.010347504168748856
0	5402	0.0011131174396723509
0	5430	0.005216225050389767
0	5504	0.013836774975061417
0	5510	0.0011257599107921124
0	5508	-0.0003768181486520916
0	5468	-0.007562675513327122
0	5434	-0.006452837493270636
0	5428	-0.0011426685377955437
0	5532	0.019846823066473007
0	5512	-0.0038183971773833036
0	5454	-0.011062650009989738
0	5446	-0.0015233259182423353
0	5366	-0.015194488689303398
0	5320	-0.00871124118566513
0	5478	0.02983609028160572
0	5492	0.0026343849021941423
0	5514	0.004126650281250477
0	5608	0.01758302003145218
0	5712	0.019381770864129066
0	5734	0.004083956591784954
0	5618	-0.021446531638503075
0	5540	-0.014378939755260944
0	5492	-0.008829155936837196
0	5400	-0.01689334027469158
0	5372	-0.005136420950293541
0	5292	-0.014668491668999195
0	5274	-0.003299362026154995
0	5358	0.015386117622256279
0	5372	0.002562006702646613
0	5480	0.019760195165872574
0	5546	0.012069490738213062
0	5670	0.02265612594783306
0	6358	0.1255214810371399
0	6354	-0.0007260055281221867
1	4796	-0.2813425362110138
0	846	-0.7163583636283875
0	3042	0.40970659255981445
0	5506	0.46664896607398987
0	6480	0.1843719333410263
0	6798	0.059837423264980316
0	6884	0.016052963212132454
0	6820	-0.011841034516692162
0	6662	-0.02898692525923252
0	6608	-0.009829023852944374
0	6604	-0.0007224302389658988
0	6322	-0.05058840662240982
0	6326	0.0007140222005546093
0	6458	0.023449435830116272
0	6546	0.01555466465651989
0	6460	-0.015126818791031837
0	6382	-0.013661520555615425
0	6510	0.022319354116916656
0	6562	0.009016402997076511
0	6402	-0.027572263032197952
0	6570	0.02878519520163536
0	6374	-0.0333545096218586
0	6026	-0.05886000767350197
0	5894	-0.022231953218579292
0	5728	-0.02787448652088642
0	5772	0.007373725064098835
0	5674	-0.016396550461649895
0	5562	-0.018725547939538956
0	5358	-0.03412779048085213
0	5078	-0.047104738652706146
0	4852	-0.038294266909360886
0	4576	-0.04675166308879852
0	4490	-0.014267070218920708
0	4538	0.007899761199951172
0	4650	0.018531182780861855
0	4700	0.008357197977602482
0	4606	-0.01589735597372055
0	4738	0.022614356130361557
0	4768	0.005201470106840134
0	4830	0.010868676006793976
0	4828	-0.00035428328556008637
0	5084	0.04582885652780533
0	5248	0.02957761660218239
0	5166	-0.014885274693369865
0	5222	0.010245651938021183
0	5298	0.014018001966178417
0	5368	0.013004222884774208
0	5350	-0.003365072887390852
0	5518	0.031636036932468414
0	5464	-0.01023580227047205
0	5400	-0.012203647755086422
0	5452	0.009989753365516663
0	5476	0.004638039506971836
0	5462	-0.0027151426766067743
0	5438	-0.004667565692216158
0	5352	-0.016756946220993996
0	5480	0.0250087920576334
0	5482	0.0003912567044608295
0	5440	-0.008220679126679897
0	5456	0.00313001312315464
0	5410	-0.008976660668849945
0	5446	0.006999805569648743
0	5424	-0.004253673832863569
0	5466	0.008072059601545334
0	5480	0.0026747842784971
0	5430	-0.009502572007477283
0	5566	0.0257280133664608
0	5614	0.009025836363434792
0	5652	0.007106434553861618
0	5666	0.0026038114447146654
0	5728	0.011471709236502647
0	5712	-0.0029440987855196
0	5696	-0.0029328023083508015
0	5772	0.013892781920731068
0	5644	-0.023312287405133247
0	5632	-0.0021799420937895775
0	5622	-0.0018129517557099462
0	5514	-0.019549869000911713
0	5510	-0.0007233534706756473
0	5438	-0.013020990416407585
0	5442	0.0007235017837956548
0	5266	-0.03182601556181908
0	5266	0.0
0	5444	0.03226469084620476
0	5512	0.012327178381383419
0	5606	0.017032893374562263
0	6242	0.11506729573011398
0	6396	0.027734754607081413
1	4552	-0.3302844166755676
0	732	-0.6878586411476135
0	2460	0.3202372193336487
0	4874	0.45567232370376587
0	6262	0.26294851303100586
0	6712	0.08480112999677658
0	6852	0.02617768384516239
0	6844	-0.0014831844018772244
0	6800	-0.008086848072707653
0	6688	-0.020430250093340874
0	6620	-0.01232360303401947
0	6520	-0.018017584457993507
0	6432	-0.015774566680192947
0	6380	-0.009282288141548634
0	6292	-0.015646297484636307
0	6250	-0.007441266905516386
0	6158	-0.016254033893346786
0	6114	-0.007750208489596844
0	6078	-0.006323184818029404
0	6062	-0.0028028215747326612
0	6060	-0.00034923519706353545
0	6028	-0.005569931585341692
0	6026	-0.00034693311317823827
0	6024	-0.00034576552570797503
0	6004	-0.003442617366090417
0	5940	-0.010969923809170723
0	5862	-0.013331814669072628
0	5802	-0.0102348318323493
0	5624	-0.03032953478395939
0	5456	-0.02872646041214466
0	5078	-0.06498269736766815
0	4898	-0.030851148068904877
0	4772	-0.02109374850988388
0	4740	-0.005288906395435333
0	4710	-0.004962013103067875
0	4762	0.008675051853060722
0	4792	0.0050597041845321655
0	4860	0.011603039689362049
0	4946	0.014841916970908642
0	5000	0.009419809095561504
0	5090	0.015855304896831512
0	5140	0.008888361975550652
0	5198	0.010395507328212261
0	5234	0.006500306539237499
0	5276	0.007636363618075848
0	5342	0.012074348516762257
0	5366	0.004415119532495737
0	5400	0.006285277660936117
0	5384	-0.002970848698168993
0	5376	-0.0014918321976438165
0	5408	0.005992883816361427
0	5372	-0.006769547238945961
0	5398	0.00490930350497365
0	5392	-0.001137412036769092
0	5388	-0.000761314993724227
0	5428	0.007643020246177912
0	5400	-0.005367617588490248
0	5428	0.005383510608226061
0	5426	-0.00038546041469089687
0	5480	0.010420686565339565
0	5482	0.00038589182076975703
0	5452	-0.005773375742137432
0	5474	0.004218815825879574
0	5478	0.0007636308437213302
0	5482	0.0007600613171234727
0	5504	0.004159995820373297
0	5510	0.0011292629642412066
0	5546	0.006745194084942341
0	5510	-0.006716418080031872
0	5530	0.0037183016538619995
0	5560	0.005559192970395088
0	5548	-0.002217240398749709
0	5652	0.019167914986610413
0	5736	0.015438716858625412
0	5696	-0.007329228799790144
0	5660	-0.006579427979886532
0	5570	-0.0164167657494545
0	5532	-0.006922936998307705
0	5414	-0.021480321884155273
0	5468	0.009828188456594944
0	5468	0.0
0	5494	0.004727730993181467
0	5514	0.0036340290680527687
0	5474	-0.007262955419719219
0	5506	0.005807482171803713
0	5560	0.009793134406208992
0	5920	0.06523551046848297
0	6698	0.1405397653579712
1	5004	-0.3036858141422272
0	1022	-0.7156635522842407
0	2572	0.28621724247932434
0	5092	0.4738207757472992
0	6322	0.2317926436662674
0	6770	0.08397795259952545
0	6842	0.0133883748203516
0	6814	-0.005163067020475864
0	6764	-0.00914611853659153
0	6660	-0.018879570066928864
0	6590	-0.012622316367924213
0	6464	-0.02257363311946392
0	6370	-0.016747236251831055
0	6328	-0.0074469842948019505
0	6252	-0.013413658365607262
0	6224	-0.004924491047859192
0	6174	-0.008768647909164429
0	6174	0.0
0	6122	-0.009066815488040447
0	6106	-0.0027808675076812506
0	6100	-0.0010393690317869186
0	6076	-0.004141072276979685
0	6104	0.004814415704458952
0	6072	-0.005482205655425787
0	5968	-0.017758551985025406
0	5922	-0.007834498770534992
0	5842	-0.013590649701654911
0	5672	-0.02882528491318226
0	5508	-0.027790328487753868
0	5306	-0.03430939465761185
0	5086	-0.03766349330544472
0	4890	-0.0335390567779541
0	4800	-0.015068141743540764
0	4746	-0.008929851464927197
0	4714	-0.005301875527948141
0	4768	0.009027081541717052
0	4800	0.005409730598330498
0	4870	0.011971541680395603
0	4936	0.011413945816457272
0	5008	0.012584185227751732
0	5064	0.009882817976176739
0	5152	0.015670817345380783
0	5204	0.009332711808383465
0	5240	0.006506494712084532
0	5312	0.013098848052322865
0	5372	0.01097828708589077
0	5378	0.0011035633506253362
0	5434	0.010350435972213745
0	5456	0.004084866028279066
0	5432	-0.004474662244319916
0	5426	-0.0011233710683882236
0	5386	-0.007520775776356459
0	5414	0.005287408363074064
0	5392	-0.004172514658421278
0	5378	-0.002666700631380081
0	5398	0.0038238968700170517
0	5394	-0.0007673419313505292
0	5406	0.0023086394648998976
0	5376	-0.005781460553407669
0	5332	-0.008486672304570675
0	5404	0.013884959742426872
0	5392	-0.002309439005330205
0	5424	0.0061387354508042336
0	5464	0.007642922457307577
0	5492	0.005325691308826208
0	5518	0.004921011161059141
0	5544	0.00489783613011241
0	5532	-0.0022500280756503344
0	5538	0.0011203783797100186
0	5566	0.0052089146338403225
0	5604	0.007044864818453789
0	5644	0.007390982937067747
0	5662	0.003315894166007638
0	5628	-0.0062457905150949955
0	5586	-0.007697100751101971
0	5620	0.006220574025064707
0	5752	0.02411399409174919
0	5762	0.0018226666143164039
0	5710	-0.009459016844630241
0	5632	-0.014166707172989845
0	5498	-0.02430824376642704
0	5422	-0.013780765235424042
0	5462	0.007251456379890442
0	5454	-0.0014498707605525851
0	5466	0.002173991873860359
0	5468	0.00036213951534591615
0	5482	0.0025339059066027403
0	5524	0.007597684394568205
0	5520	-0.0007230745395645499
0	5624	0.01878363825380802
0	6474	0.15325070917606354
0	5714	-0.13614866137504578
1	4192	-0.27213236689567566
0	916	-0.5900788903236389
0	4086	0.5870152711868286
0	5920	0.3425902724266052
0	6702	0.1457124799489975
0	6822	0.022200295701622963
0	6838	0.00293667777441442
0	6758	-0.014567526988685131
0	6680	-0.01410131249576807
0	6576	-0.018680620938539505
0	6504	-0.012860970571637154
0	6438	-0.011730413883924484
0	6340	-0.017334701493382454
0	6314	-0.004578647203743458
0	6234	-0.014030985534191132
0	6174	-0.010493668727576733
0	6134	-0.006979016121476889
0	6096	-0.006613756529986858
0	6098	0.0003471579111646861
0	6078	-0.003459569066762924
0	6074	-0.000689306587446481
0	6038	-0.006182026118040085
0	6042	0.000684603292029351
0	6020	-0.003752985270693898
0	5938	-0.013944629579782486
0	5902	-0.006106248591095209
0	5806	-0.01624860242009163
0	5710	-0.016222426667809486
0	5516	-0.03276694938540459
0	5338	-0.030227556824684143
0	5152	-0.03165346756577492
0	4942	-0.035544220358133316
0	4830	-0.018535885959863663
0	4736	-0.015493313781917095
0	4740	0.0006636067409999669
0	4760	0.0033544290345162153
0	4806	0.007805165369063616
0	4892	0.01476192194968462
0	4932	0.006940106861293316
0	5028	0.016826361417770386
0	5068	0.007074971217662096
0	5156	0.015697840601205826
0	5182	0.0046736253425478935
0	5240	0.010498624294996262
0	5316	0.013846546411514282
0	5334	0.0032978306990116835
0	5358	0.0044197808019816875
0	5382	0.004440935794264078
0	5406	0.004460579715669155
0	5428	0.004106469452381134
0	5446	0.003373481798917055
0	5444	-0.00037630769656971097
0	5438	-0.0011331444839015603
0	5418	-0.0037915650755167007
0	5420	0.0003806044114753604
0	5428	0.0015274366596713662
0	5408	-0.003830145811662078
0	5404	-0.0007679802947677672
0	5404	0.0
0	5434	0.005775302182883024
0	5436	0.00038478311034850776
0	5450	0.0026885848492383957
0	5458	0.0015313545009121299
0	5454	-0.0007626213482581079
0	5514	0.011387360282242298
0	5506	-0.0015109163941815495
0	5528	0.004135597497224808
0	5532	0.000748540333006531
0	5506	-0.004846164956688881
0	5520	0.0026002004742622375
0	5516	-0.0007406584336422384
0	5548	0.00590892881155014
0	5534	-0.002578933723270893
0	5546	0.002205747179687023
0	5528	-0.0033024291042238474
0	5598	0.01282615028321743
0	5738	0.02561100572347641
0	5684	-0.009855693206191063
0	5622	-0.011295043863356113
0	5600	-0.004002668429166079
0	5490	-0.019992487505078316
0	5442	-0.008721670135855675
0	5410	-0.005814516916871071
0	5448	0.0069059100933372974
0	5454	0.0010902087669819593
0	5468	0.002543296664953232
0	5488	0.003632401116192341
0	5476	-0.0021783856209367514
0	5526	0.009072653017938137
0	5892	0.06636285781860352
0	6712	0.148271381855011
1	5082	-0.2924851179122925
0	1022	-0.730128288269043
0	1418	0.07315991818904877
0	3994	0.4880390167236328
0	6006	0.3848802447319031
0	6730	0.13805553317070007
0	6822	0.017409954220056534
0	6794	-0.005255912896245718
0	6732	-0.011545050889253616
0	6656	-0.014046329073607922
0	6562	-0.01725192740559578
0	6494	-0.012403176166117191
0	6414	-0.014507295563817024
0	6348	-0.011906051076948643
0	6276	-0.012924689799547195
0	6210	-0.011799761094152927
0	6174	-0.0064181797206401825
0	6140	-0.006044014822691679
0	6158	0.0031899812165647745
0	6100	-0.010245056822896004
0	6098	-0.00035201350692659616
0	6082	-0.002805311232805252
0	6062	-0.0034929208923131227
0	6030	-0.005568768363445997
0	5976	-0.00936600286513567
0	5934	-0.007263336330652237
0	5838	-0.016559336334466934
0	5732	-0.01824629120528698
0	5590	-0.024414286017417908
0	5372	-0.0375460684299469
0	5202	-0.029506035149097443
0	4972	-0.03989223390817642
0	4854	-0.020009495317935944
0	4766	-0.014638041146099567
0	4716	-0.008281619288027287
0	4758	0.007006461266428232
0	4774	0.0026987213641405106
0	4832	0.009896822273731232
0	4878	0.007937786169350147
0	4946	0.011860603466629982
0	5036	0.015855491161346436
0	5084	0.008532727137207985
0	5162	0.013982504606246948
0	5238	0.013726671226322651
0	5282	0.00800048466771841
0	5318	0.006585526745766401
0	5380	0.011403767392039299
0	5400	0.0036966297775506973
0	5418	0.003342204727232456
0	5408	-0.0018653236329555511
0	5420	0.0022480611223727465
0	5434	0.0026338892057538033
0	5442	0.001511220820248127
0	5440	-0.000379285920644179
0	5410	-0.0057105873711407185
0	5450	0.007641559932380915
0	5432	-0.003449333133175969
0	5430	-0.00038425574894063175
0	5454	0.004620004910975695
0	5458	0.0007706733304075897
0	5442	-0.0030809915624558926
0	5438	-0.0007690631318837404
0	5472	0.006517571862787008
0	5476	0.0007637572125531733
0	5454	-0.00418176781386137
0	5518	0.012108522467315197
0	5522	0.0007531727314926684
0	5524	0.0003748266608454287
0	5540	0.00298570585437119
0	5532	-0.001486730994656682
0	5554	0.004073721822351217
0	5516	-0.007014003116637468
0	5542	0.004786333069205284
0	5534	-0.0014692918630316854
0	5532	-0.0003666585253085941
0	5566	0.006223686505109072
0	5552	-0.002558822510764003
0	5664	0.02044915035367012
0	5714	0.009114441461861134
0	5660	-0.00982592348009348
0	5632	-0.00508714746683836
0	5524	-0.01959669589996338
0	5480	-0.007979495450854301
0	5428	-0.009428147226572037
0	5440	0.0021758838556706905
0	5466	0.004713560454547405
0	5456	-0.0018127326620742679
0	5474	0.0032624455634504557
0	5450	-0.004348771646618843
0	5496	0.008335347287356853
0	5518	0.003985555376857519
0	5948	0.07786375284194946
0	6516	0.10253694653511047
1	4748	-0.31717178225517273
0	608	-0.745945930480957
0	2094	0.27577418088912964
0	4624	0.47968146204948425
0	6234	0.30699414014816284
0	6722	0.09263359755277634
0	6826	0.019595036283135414
0	6818	-0.0014951593475416303
0	6738	-0.01483477745205164
0	6690	-0.00883413851261139
0	6578	-0.020468832924962044
0	6494	-0.015254607424139977
0	6454	-0.007222041487693787
0	6342	-0.020114218816161156
0	6312	-0.005362377502024174
0	6234	-0.013888559304177761
0	6174	-0.010650635696947575
0	6172	-0.0003539447207003832
0	6136	-0.006350774317979813
0	6126	-0.0017577781109139323
0	6084	-0.007354829926043749
0	6084	0.0
0	6058	-0.004518700297921896
0	6022	-0.006235277745872736
0	6014	-0.001381104113534093
0	5930	-0.014456669799983501
0	5842	-0.015103492885828018
0	5754	-0.015073655173182487
0	5548	-0.03523857146501541
0	5374	-0.029832663014531136
0	5152	-0.038312412798404694
0	4980	-0.02961466647684574
0	4842	-0.02317899465560913
0	4784	-0.009594283066689968
0	4762	-0.003636003006249666
0	4740	-0.0036657298915088177
0	4780	0.006739149801433086
0	4810	0.005113113671541214
0	4886	0.013102694414556026
0	4966	0.013940681703388691
0	5026	0.01056127343326807
0	5154	0.022737769410014153
0	5198	0.007878621108829975
0	5260	0.011185547336935997
0	5292	0.005810997448861599
0	5326	0.006212542299181223
0	5370	0.00808447040617466
0	5388	0.0033236495219171047
0	5412	0.004453020635992289
0	5426	0.0026092790067195892
0	5422	-0.0007487645489163697
0	5464	0.007894637994468212
0	5426	-0.007170623168349266
0	5458	0.006062519736588001
0	5432	-0.004943404346704483
0	5462	0.005725045222789049
0	5454	-0.0015312372706830502
0	5450	-0.0007675185916014016
0	5488	0.007305631414055824
0	5484	-0.000769309641327709
0	5478	-0.0011531512718647718
0	5488	0.0019179133232682943
0	5464	-0.004588091745972633
0	5522	0.011044112965464592
0	5500	-0.004169614985585213
0	5526	0.00490485830232501
0	5502	-0.004505293443799019
0	5518	0.0029900209046900272
0	5542	0.004465337842702866
0	5502	-0.0074120741337537766
0	5540	0.007018235046416521
0	5502	-0.0069960965774953365
0	5522	0.003674309002235532
0	5556	0.006233956664800644
0	5524	-0.005856658332049847
0	5560	0.006579427979886532
0	5534	-0.004745045211166143
0	5530	-0.0007292793598026037
0	5558	0.00510055385529995
0	5526	-0.005824041087180376
0	5592	0.012004802003502846
0	5708	0.021077623590826988
0	5674	-0.00616880739107728
0	5632	-0.00760887935757637
0	5544	-0.015925681218504906
0	5506	-0.006872355006635189
0	5420	-0.015549100004136562
0	5426	0.0010850433027371764
0	5472	0.008319868706166744
0	5474	0.00036176832509227097
0	5482	0.0014471604954451323
0	5504	0.003979595378041267
0	5502	-0.0003617464972194284
0	5526	0.004339963663369417
0	5830	0.05497154965996742
0	6720	0.16061696410179138
1	4766	-0.3501206636428833
0	498	-0.7681232690811157
0	2834	0.433470219373703
0	5314	0.46803051233291626
0	6402	0.20557263493537903
0	6822	0.07892857491970062
0	6846	0.0044732168316841125
0	6810	-0.006655082106590271
0	6780	-0.005503375083208084
0	6664	-0.021117528900504112
0	6576	-0.0159135852009058
0	6474	-0.018330158665776253
0	6374	-0.017869694158434868
0	6356	-0.003200986422598362
0	6264	-0.01628049649298191
0	6212	-0.00916568748652935
0	6174	-0.0066782268695533276
0	6130	-0.007710100617259741
0	6118	-0.0020966557785868645
0	6080	-0.006617288570851088
0	6084	0.0006942435866221786
0	6052	-0.005532694980502129
0	6058	0.001033651060424745
0	6042	-0.0027471582870930433
0	5988	-0.009241617284715176
0	5940	-0.008191126398742199
0	5848	-0.01566081866621971
0	5754	-0.01596991717815399
0	5598	-0.026469090953469276
0	5400	-0.03363952785730362
0	5182	-0.03731641545891762
0	4954	-0.03893575817346573
0	4808	-0.024315770715475082
0	4754	-0.008896015584468842
0	4728	-0.004296478815376759
0	4768	0.006671485025435686
0	4788	0.003374274354428053
0	4844	0.009558597579598427
0	4892	0.00828576646745205
0	4952	0.010470960289239883
0	5052	0.01762714982032776
0	5110	0.010316124185919762
0	5212	0.01829005964100361
0	5256	0.00794501043856144
0	5314	0.010542770847678185
0	5346	0.005850376561284065
0	5360	0.0025731194764375687
0	5418	0.010713494382798672
0	5418	0.0
0	5444	0.004844720475375652
0	5448	0.0007482976070605218
0	5426	-0.0041320244781672955
0	5420	-0.0011313497088849545
0	5404	-0.0030290791764855385
0	5428	0.004561985842883587
0	5410	-0.003433672711253166
0	5438	0.005359330680221319
0	5434	-0.000767626625020057
0	5432	-0.00038460057112388313
0	5450	0.003465092508122325
0	5448	-0.00038488677819259465
0	5462	0.002689617918804288
0	5486	0.004595823120325804
0	5462	-0.004576019011437893
0	5474	0.0022777600679546595
0	5490	0.0030227459501475096
0	5492	0.000376133102690801
0	5518	0.004868245217949152
0	5500	-0.003356205066666007
0	5510	0.0018575390568003058
0	5508	-0.0003702286630868912
0	5518	0.0018459494458511472
0	5526	0.0014730613911524415
0	5540	0.002572898752987385
0	5548	0.0014676745049655437
0	5596	0.008793462999165058
0	5542	-0.009877567179501057
0	5578	0.006577745079994202
0	5560	-0.003285670652985573
0	5544	-0.0029180748388171196
0	5558	0.0025517644826322794
0	5544	-0.0025500599294900894
0	5556	0.002184201031923294
0	5538	-0.003273600246757269
0	5584	0.008359076455235481
0	5706	0.022148795425891876
0	5674	-0.005799132399260998
0	5662	-0.002171579049900174
0	5574	-0.015903040766716003
0	5548	-0.0046946099027991295
0	5422	-0.02273738943040371
0	5448	0.004692576359957457
0	5442	-0.001082993345335126
0	5452	0.0018054669490084052
0	5478	0.004694496747106314
0	5470	-0.0014444257831200957
0	5476	0.0010834496933966875
0	5510	0.006140139419585466
0	5566	0.01011365745216608
0	6500	0.16861437261104584
0	5800	-0.12562212347984314
1	4224	-0.2823360860347748
0	592	-0.6557298302650452
0	2750	0.40153321623802185
0	5346	0.49153634905815125
0	6406	0.20096057653427124
0	6760	0.06677145510911942
0	6838	0.014600544236600399
0	6798	-0.007429052609950304
0	6734	-0.011796075850725174
0	6614	-0.02195710875093937
0	6540	-0.013453567400574684
0	6484	-0.010119994170963764
0	6376	-0.019408635795116425
0	6316	-0.010728717781603336
0	6256	-0.010682112537324429
0	6174	-0.014551390893757343
0	6174	0.0
0	6112	-0.010936802253127098
0	6106	-0.0010550625156611204
0	6054	-0.009114066138863564
0	6090	0.006286526098847389
0	6072	-0.003131560515612364
0	6032	-0.00693369098007679
0	6020	-0.0020731594413518906
0	5950	-0.01205580122768879
0	5864	-0.014770709909498692
0	5806	-0.00993956346064806
0	5674	-0.0225828904658556
0	5542	-0.022568989545106888
0	5326	-0.03713382035493851
0	5134	-0.03309774026274681
0	4952	-0.031210700049996376
0	4824	-0.021416621282696724
0	4794	-0.004962122533470392
0	4756	-0.006304542534053326
0	4780	0.004018485080450773
0	4816	0.0060950834304094315
0	4846	0.005137865897268057
0	4952	0.018358370289206505
0	4990	0.006649712100625038
0	5090	0.017666596919298172
0	5116	0.004632874391973019
0	5172	0.01006024144589901
0	5248	0.013752336613833904
0	5270	0.0040067508816719055
0	5360	0.016489960253238678
0	5356	-0.0007365487981587648
0	5416	0.011103982105851173
0	5424	0.0014869151636958122
0	5416	-0.0014932245248928666
0	5452	0.006746289785951376
0	5436	-0.0030103481840342283
0	5428	-0.0015112018445506692
0	5416	-0.0022754566743969917
0	5426	0.001903480850160122
0	5414	-0.0022917964961379766
0	5416	0.0003830634814221412
0	5444	0.005376275163143873
0	5460	0.0030766865238547325
0	5416	-0.008465337567031384
0	5460	0.0084604537114501
0	5442	-0.0034538779873400927
0	5460	0.0034430869854986668
0	5454	-0.0011430602753534913
0	5462	0.0015177193563431501
0	5492	0.0056661502458155155
0	5468	-0.004512691870331764
0	5502	0.006366961635649204
0	5492	-0.0018649990670382977
0	5498	0.0011152555234730244
0	5514	0.002964683109894395
0	5520	0.0011088523315265775
0	5526	0.001106099458411336
0	5530	0.0007357990834861994
0	5560	0.00550896767526865
0	5528	-0.005865819286555052
0	5554	0.0047610909678041935
0	5542	-0.00219477410428226
0	5550	0.001462059561163187
0	5556	0.0010957036865875125
0	5522	-0.0062037003226578236
0	5564	0.0076601337641477585
0	5560	-0.0007289692293852568
0	5562	0.0003641925868578255
0	5570	0.0014554804656654596
0	5536	-0.006180394906550646
0	5598	0.011261806823313236
0	5682	0.015241136774420738
0	5680	-0.000362362596206367
0	5622	-0.01049457211047411
0	5560	-0.011204415000975132
0	5532	-0.005057011730968952
0	5410	-0.022022191435098648
0	5446	0.006500306539237499
0	5444	-0.0003611455613281578
0	5436	-0.0014447387075051665
0	5478	0.007587436120957136
0	5472	-0.001083854236640036
0	5502	0.005420250352472067
0	5530	0.005058595445007086
0	5786	0.04624110087752342
0	6716	0.16771060228347778
1	5162	-0.2782386541366577
0	1546	-0.6488426327705383
0	1644	0.01801404356956482
0	4496	0.5371335744857788
0	6158	0.31505516171455383
0	6720	0.10612984746694565
0	6832	0.020994752645492554
0	6812	-0.0037192695308476686
0	6738	-0.013654984533786774
0	6654	-0.015385179780423641
0	6594	-0.01091676577925682
0	6472	-0.022059088572859764
0	6404	-0.0122281638905406
0	6324	-0.01431451365351677
0	6262	-0.011041852645576
0	6240	-0.003902692813426256
0	6174	-0.011669574305415154
0	6174	0.0
0	6124	-0.008786419406533241
0	6086	-0.006655690725892782
0	6074	-0.002095020841807127
0	6042	-0.005565217230468988
0	6062	0.0034662846010178328
0	6018	-0.007598696742206812
0	5988	-0.005163629539310932
0	5938	-0.008580940775573254
0	5834	-0.01780090481042862
0	5730	-0.017767248675227165
0	5600	-0.022183796390891075
0	5422	-0.030406907200813293
0	5224	-0.03407448157668114
0	4990	-0.04025552421808243
0	4874	-0.01956925168633461
0	4776	-0.016237711533904076
0	4758	-0.00297783175483346
0	4740	-0.003001000266522169
0	4772	0.005394470877945423
0	4856	0.014326320961117744
0	4870	0.002414570190012455
0	4966	0.016736790537834167
0	5034	0.011972674168646336
0	5092	0.010306347161531448
0	5156	0.011466246098279953
0	5210	0.009747292846441269
0	5280	0.012720642611384392
0	5292	0.002193730790168047
0	5336	0.00809041690081358
0	5370	0.006283960770815611
0	5382	0.0022289089392870665
0	5414	0.00597118865698576
0	5426	0.002248594770208001
0	5408	-0.003386599011719227
0	5430	0.00415570056065917
0	5388	-0.007965306751430035
0	5420	0.006093071773648262
0	5432	0.002293169032782316
0	5426	-0.0011502919951453805
0	5456	0.005766495130956173
0	5446	-0.0019255455117672682
0	5434	-0.002312940778210759
0	5448	0.0026982228737324476
0	5432	-0.0030792520847171545
0	5460	0.0053734551183879375
0	5482	0.004206232726573944
0	5490	0.0015226880786940455
0	5532	0.00795715767890215
0	5524	-0.0015081061283126473
0	5522	-0.00037525329389609396
0	5508	-0.0026158771943300962
0	5532	0.00446661189198494
0	5540	0.0014836611226201057
0	5526	-0.002588310744613409
0	5544	0.0033189512323588133
0	5538	-0.0011036850046366453
0	5576	0.006975975818932056
0	5560	-0.002931942231953144
0	5572	0.002195362700149417
0	5558	-0.00255757593549788
0	5558	0.0
0	5574	0.0029164792504161596
0	5578	0.0007284117164090276
0	5554	-0.004366441164165735
0	5566	0.0021812892518937588
0	5550	-0.0029059911612421274
0	5570	0.0036289298441261053
0	5550	-0.003625640645623207
0	5580	0.005434585735201836
0	5572	-0.001447876449674368
0	5562	-0.0018085798947140574
0	5568	0.0010843895142897964
0	5604	0.006501089781522751
0	5696	0.016598308458924294
0	5678	-0.0032423476222902536
0	5602	-0.013672015629708767
0	5582	-0.0035953118931502104
0	5490	-0.016529321670532227
0	5442	-0.008626163005828857
0	5420	-0.0039556012488901615
0	5432	0.0021589205134660006
0	5470	0.006839699111878872
0	5462	-0.0014404724352061749
0	5484	0.00396315474063158
0	5512	0.005045287311077118
0	5534	0.003964916802942753
0	6050	0.09299755096435547
0	6488	0.07871562987565994
1	4700	-0.3195558190345764
0	678	-0.7225755453109741
0	2420	0.3223816454410553
0	4826	0.454053670167923
0	6288	0.27720895409584045
0	6708	0.07928019016981125
0	6876	0.031483471393585205
0	6832	-0.008178742602467537
0	6794	-0.0070077949203550816
0	6708	-0.01574130542576313
0	6596	-0.02035648189485073
0	6512	-0.01517395954579115
0	6382	-0.023351335898041725
0	6288	-0.016802316531538963
0	6254	-0.0060514728538692
0	6174	-0.014184062369167805
0	6164	-0.001768012996762991
0	6082	-0.014456301927566528
0	6062	-0.0035160095430910587
0	6004	-0.01016782782971859
0	6026	0.003845212748274207
0	6034	0.0013935178285464644
0	6016	-0.003124276641756296
0	6036	0.0034597287885844707
0	6004	-0.0055175586603581905
0	5942	-0.010657071135938168
0	5834	-0.018515342846512794
0	5748	-0.0147166196256876
0	5660	-0.015040506608784199
0	5498	-0.027749862521886826
0	5342	-0.026874002069234848
0	5152	-0.032610934227705
0	5002	-0.025102922692894936
0	4906	-0.01583775132894516
0	4784	-0.020118290558457375
0	4812	0.004655803088098764
0	4766	-0.007730053272098303
0	4802	0.006121962796896696
0	4810	0.0013762731105089188
0	4850	0.0069605568423867226
0	4964	0.020053710788488388
0	4990	0.0046178437769412994
0	5090	0.017922431230545044
0	5168	0.014088238589465618
0	5206	0.006910095922648907
0	5260	0.009882387705147266
0	5290	0.005520998500287533
0	5346	0.010361416265368462
0	5358	0.0022304279264062643
0	5402	0.008214063942432404
0	5448	0.008619720116257668
0	5422	-0.004889668896794319
0	5452	0.005663654766976833
0	5442	-0.0018946091877296567
0	5464	0.004183834884315729
0	5458	-0.0011449652956798673
0	5458	0.0
0	5508	0.009593860246241093
0	5448	-0.011530331335961819
0	5460	0.002309202216565609
0	5448	-0.002309765201061964
0	5480	0.006155187729746103
0	5500	0.0038389191031455994
0	5476	-0.004592071287333965
0	5482	0.0011438593501225114
0	5480	-0.0003796026867348701
0	5524	0.008316113613545895
0	5506	-0.003385877003893256
0	5512	0.0011236657155677676
0	5552	0.007458419073373079
0	5508	-0.008168620057404041
0	5554	0.008511267602443695
0	5554	0.0
0	5556	0.00036772366729564965
0	5568	0.00220110802911222
0	5536	-0.005856658332049847
0	5550	0.002557980827987194
0	5564	0.00255393679253757
0	5546	-0.0032792857382446527
0	5552	0.0010918487096205354
0	5532	-0.00363618740811944
0	5568	0.006541806738823652
0	5530	-0.00689913984388113
0	5550	0.0036294127348810434
0	5548	-0.00036270433338359
0	5530	-0.0032626823522150517
0	5554	0.004348351154476404
0	5528	-0.004707984160631895
0	5518	-0.0018105445196852088
0	5554	0.006515208166092634
0	5528	-0.0047027613036334515
0	5576	0.008677834644913673
0	5660	0.015177431516349316
0	5702	0.007581409998238087
0	5650	-0.009373760782182217
0	5556	-0.01692778617143631
0	5532	-0.0043200175277888775
0	5432	-0.017999209463596344
0	5448	0.0028811523225158453
0	5432	-0.002882259665057063
0	5442	0.001802711165510118
0	5464	0.003967538475990295
0	5458	-0.0010826416546478868
0	5492	0.006138513796031475
0	5478	-0.002528597367927432
0	5504	0.004698512144386768
0	6140	0.11495499312877655
0	6284	0.025935353711247444
1	4508	-0.3184926509857178
0	772	-0.6741654276847839
0	2310	0.2857496738433838
0	4864	0.48417675495147705
0	6262	0.2662113308906555
0	6680	0.07922869175672531
0	6832	0.028606200590729713
0	6774	-0.01082830224186182
0	6724	-0.009263033047318459
0	6636	-0.01618599146604538
0	6532	-0.01899982988834381
0	6468	-0.011620447039604187
0	6370	-0.017695918679237366
0	6326	-0.007905043661594391
0	6248	-0.013950825668871403
0	6168	-0.014258555136620998
0	6156	-0.0021328781731426716
0	6084	-0.012759019620716572
0	6076	-0.0014132611686363816
0	6042	-0.005987180396914482
0	6046	0.0007018611067906022
0	6038	-0.0013988296268507838
0	6020	-0.003136289305984974
0	6006	-0.0024311747401952744
0	5962	-0.007616937160491943
0	5900	-0.010701833292841911
0	5844	-0.009643533267080784
0	5722	-0.020965080708265305
0	5560	-0.02780415676534176
0	5344	-0.037195634096860886
0	5168	-0.03047196939587593
0	4964	-0.035185761749744415
0	4850	-0.01919989287853241
0	4786	-0.01062734518200159
0	4770	-0.0026579839177429676
0	4798	0.004690221976488829
0	4838	0.00677147414535284
0	4870	0.005478826817125082
0	4946	0.013155161403119564
0	4976	0.005246650893241167
0	5046	0.01236181240528822
0	5112	0.011758278124034405
0	5190	0.014008956030011177
0	5250	0.01085278857499361
0	5266	0.0029129749163985252
0	5352	0.015751108527183533
0	5388	0.00662649841979146
0	5410	0.004068699199706316
0	5462	0.009657051414251328
0	5428	-0.006338316947221756
0	5452	0.004491242114454508
0	5442	-0.0018783105770125985
0	5432	-0.0018853457877412438
0	5442	0.0018923385068774223
0	5422	-0.0037981895729899406
0	5450	0.005335704889148474
0	5414	-0.006879857741296291
0	5456	0.008048546500504017
0	5440	-0.003071331651881337
0	5444	0.0007684229058213532
0	5448	0.0007679312257096171
0	5436	-0.0022996729239821434
0	5478	0.008024659939110279
0	5450	-0.005328461993485689
0	5486	0.006822144612669945
0	5478	-0.0015092062531039119
0	5496	0.003381255315616727
0	5494	-0.00037415348924696445
0	5482	-0.002236219123005867
0	5518	0.00668639549985528
0	5510	-0.0014808964915573597
0	5516	0.0011075014481320977
0	5542	0.0047872732393443584
0	5502	-0.007349158637225628
0	5540	0.00697094202041626
0	5526	-0.002563945949077606
0	5542	0.0029271149542182684
0	5526	-0.0029243684839457273
0	5522	-0.0007305758190341294
0	5534	0.002190927043557167
0	5540	0.0010947573464363813
0	5554	0.002553067170083523
0	5536	-0.003280281787738204
0	5520	-0.002913965377956629
0	5548	0.005097025539726019
0	5550	0.0003637951158452779
0	5568	0.003272172063589096
0	5552	-0.0029058854561299086
0	5572	0.003630247199907899
0	5580	0.0014509401516988873
0	5528	-0.009423362091183662
0	5584	0.010143334977328777
0	5528	-0.010134279727935791
0	5572	0.007960246875882149
0	5692	0.02169380523264408
0	5684	-0.0014444604748860002
0	5622	-0.01118070725351572
0	5580	-0.007568294648081064
0	5556	-0.004322506953030825
0	5432	-0.022323036566376686
0	5452	0.003602348966524005
0	5464	0.0021621622145175934
0	5434	-0.005407094024121761
0	5446	0.0021642420906573534
0	5464	0.003247456159442663
0	5502	0.006858875509351492
0	5506	0.0007220911793410778
0	5542	0.006500228773802519
0	6210	0.12060374766588211
0	6222	0.0021576008293777704
1	4458	-0.3158648908138275
0	726	-0.6726020574569702
0	2282	0.28880777955055237
0	4860	0.48833155632019043
0	6320	0.2777143716812134
0	6738	0.07912271469831467
0	6828	0.016909241676330566
0	6766	-0.011557389982044697
0	6726	-0.007400555070489645
0	6652	-0.013594278134405613
0	6550	-0.018615854904055595
0	6458	-0.016687022522091866
0	6368	-0.01623845286667347
0	6300	-0.01220738235861063
0	6236	-0.01143946684896946
0	6170	-0.011758836917579174
0	6142	-0.0049742404371500015
0	6088	-0.009563728235661983
0	6082	-0.0010594591731205583
0	6052	-0.005280946381390095
0	6060	0.0014031477039679885
0	6062	0.00034954442526213825
0	6010	-0.009056604467332363
0	6018	0.0013886799570173025
0	5976	-0.00726652005687356
0	5914	-0.010695187374949455
0	5880	-0.005851240828633308
0	5718	-0.02781975455582142
0	5608	-0.018870944157242775
0	5420	-0.03236357495188713
0	5196	-0.03873913362622261
0	4986	-0.03616408258676529
0	4836	-0.02521488629281521
0	4772	-0.010606562718749046
0	4706	-0.010943337343633175
0	4730	0.004015213344246149
0	4762	0.005414246115833521
0	4802	0.006847595330327749
0	4900	0.01696675829589367
0	4952	0.009098649956285954
0	5044	0.01625882089138031
0	5070	0.00463601341471076
0	5152	0.01474289782345295
0	5242	0.01630001701414585
0	5254	0.0021873062942177057
0	5316	0.011368914507329464
0	5348	0.005898617673665285
0	5388	0.0074094198644161224
0	5438	0.009301979094743729
0	5430	-0.001494284369982779
0	5466	0.006750422064214945
0	5424	-0.007904840633273125
0	5464	0.007558674551546574
0	5462	-0.00037923798663541675
0	5444	-0.0034251788165420294
0	5444	0.0
0	5426	-0.003447087248787284
0	5442	0.0030729833524674177
0	5444	0.00038480284274555743
0	5446	0.0003852080262731761
0	5464	0.0034662934485822916
0	5468	0.0007689646445214748
0	5512	0.00843256525695324
0	5512	0.0
0	5492	-0.0037986221723258495
0	5530	0.00718164537101984
0	5510	-0.003760859603062272
0	5504	-0.0011229926021769643
0	5498	-0.001118095824494958
0	5518	0.0037131928838789463
0	5526	0.0014800926437601447
0	5508	-0.0033203389029949903
0	5570	0.011406004428863525
0	5534	-0.006605908740311861
0	5542	0.0014653624966740608
0	5568	0.0047540683299303055
0	5528	-0.00730273500084877
0	5554	0.004741583950817585
0	5534	-0.0036436952650547028
0	5540	0.0010924716480076313
0	5544	0.0007278285338543355
0	5532	-0.0021824531722813845
0	5546	0.0025445292703807354
0	5526	-0.0036332367453724146
0	5522	-0.0007263658917509019
0	5522	0.0
0	5528	0.0010885208612307906
0	5526	-0.00036261664354242384
0	5502	-0.004349191673099995
0	5526	0.004347668495029211
0	5540	0.0025349154602736235
0	5502	-0.006877330131828785
0	5514	0.0021713431924581528
0	5522	0.0014475445495918393
0	5574	0.009408473037183285
0	5580	0.001085056341253221
0	5650	0.012655176222324371
0	5724	0.01336705219000578
0	5660	-0.011545399203896523
0	5606	-0.009731951169669628
0	5554	-0.009366557002067566
0	5454	-0.018009580671787262
0	5444	-0.0018015422392636538
0	5426	-0.003245231229811907
0	5426	0.0
0	5456	0.005416009575128555
0	5446	-0.0018065542681142688
0	5476	0.005422340240329504
0	5496	0.0036165928468108177
0	5500	0.0007234843214973807
0	5774	0.04957062751054764
0	6732	0.17307622730731964
1	5322	-0.25290873646736145
0	1476	-0.690774142742157
0	1460	-0.002945146756246686
0	4914	0.6520344018936157
0	6304	0.26340723037719727
0	6730	0.0803339034318924
0	6818	0.01647014729678631
0	6786	-0.00594037352129817
0	6736	-0.00921002496033907
0	6630	-0.019382916390895844
0	6530	-0.018160905689001083
0	6490	-0.007219955790787935
0	6368	-0.02189335599541664
0	6310	-0.010359116829931736
0	6238	-0.012803945690393448
0	6202	-0.0063797361217439175
0	6158	-0.007775500416755676
0	6114	-0.007752757519483566
0	6092	-0.003864847356453538
0	6044	-0.008405912667512894
0	6044	0.0
0	6026	-0.0031304711010307074
0	6046	0.003466244786977768
0	6032	-0.0024177113082259893
0	5974	-0.009983132593333721
0	5932	-0.007207330781966448
0	5836	-0.016431041061878204
0	5776	-0.010249518789350986
0	5606	-0.028994735330343246
0	5428	-0.03038821928203106
0	5256	-0.02958342246711254
0	5020	-0.04060657322406769
0	4914	-0.01787521131336689
0	4804	-0.018196456134319305
0	4716	-0.014565998688340187
0	4744	0.004675602540373802
0	4744	0.0
0	4836	0.015717897564172745
0	4876	0.006910610944032669
0	4940	0.011176696047186852
0	4990	0.0088185491040349
0	5046	0.009967014193534851
0	5162	0.020824357867240906
0	5202	0.007233011070638895
0	5274	0.013106955215334892
0	5340	0.012085403315722942
0	5340	0.0
0	5422	0.015170763246715069
0	5422	0.0
0	5446	0.004477834794670343
0	5480	0.0063672796823084354
0	5446	-0.00638977624475956
0	5458	0.002263439353555441
0	5442	-0.0030291173607110977
0	5418	-0.004560656845569611
0	5450	0.006102367304265499
0	5434	-0.003060560906305909
0	5452	0.0034519792534410954
0	5452	0.0
0	5444	-0.0015389153268188238
0	5464	0.0038468935526907444
0	5434	-0.005762655753642321
0	5470	0.0068969037383794785
0	5462	-0.0015272228047251701
0	5508	0.008744914084672928
0	5476	-0.00605303980410099
0	5476	0.0
0	5530	0.010121078230440617
0	5508	-0.004105600994080305
0	5528	0.003717748448252678
0	5500	-0.005185953341424465
0	5512	0.0022155754268169403
0	5532	0.0036820657551288605
0	5506	-0.0047758412547409534
0	5538	0.005867037922143936
0	5538	0.0
0	5528	-0.00182828726246953
0	5530	0.0003652389859780669
0	5536	0.001094997045584023
0	5532	-0.0007294921670109034
0	5494	-0.0069265542551875114
0	5542	0.008748587220907211
0	5532	-0.0018215600866824389
0	5548	0.002913187025114894
0	5554	0.0010917427716776729
0	5534	-0.003636143170297146
0	5536	0.0003634293098002672
0	5538	0.0003632049192674458
0	5560	0.003993175458163023
0	5640	0.014511155895888805
0	5724	0.015218677930533886
0	5680	-0.007959190756082535
0	5630	-0.009031139314174652
0	5570	-0.010826936922967434
0	5486	-0.01514787133783102
0	5432	-0.009739205241203308
0	5444	0.0021648406982421875
0	5436	-0.0014435048215091228
0	5478	0.007582687772810459
0	5448	-0.005417183507233858
0	5474	0.004697154276072979
0	5526	0.009395779110491276
0	5542	0.0028907652013003826
0	5988	0.08057522773742676
0	6588	0.10808344185352325
1	4738	-0.3311693072319031
0	654	-0.7345852255821228
0	2542	0.34981533885002136
0	5042	0.4719177484512329
0	6404	0.25790244340896606
0	6818	0.07796414196491241
0	6846	0.005229474510997534
0	6814	-0.005928414408117533
0	6748	-0.012131311930716038
0	6680	-0.012407702393829823
0	6556	-0.02247191034257412
0	6452	-0.01873176358640194
0	6422	-0.005373840220272541
0	6334	-0.015680497512221336
0	6284	-0.00886860303580761
0	6212	-0.012722346000373363
0	6162	-0.008809641003608704
0	6130	-0.005622255150228739
0	6064	-0.01156204380095005
0	6084	0.003493571886792779
0	6050	-0.005918464157730341
0	6076	0.004509713035076857
0	6074	-0.00034563805093057454
0	6024	-0.008609309792518616
0	6010	-0.0024030760396271944
0	5922	-0.01505663339048624
0	5834	-0.015018261037766933
0	5746	-0.014991993084549904
0	5566	-0.030629955232143402
0	5398	-0.028656553477048874
0	5166	-0.03984291851520538
0	4988	-0.03049442172050476
0	4822	-0.027751771733164787
0	4718	-0.01716851443052292
0	4712	-0.0009922604076564312
0	4702	-0.0016693376237526536
0	4762	0.010135363787412643
0	4800	0.006495282519608736
0	4854	0.009337283670902252
0	4934	0.013985687866806984
0	4994	0.010597087442874908
0	5064	0.012478014454245567
0	5106	0.00754906889051199
0	5196	0.016305135563015938
0	5282	0.015688277781009674
0	5300	0.003303722245618701
0	5350	0.009228497743606567
0	5376	0.004822912625968456
0	5422	0.008572813123464584
0	5452	0.005613352172076702
0	5424	-0.005259862169623375
0	5462	0.007166475988924503
0	5436	-0.004922377876937389
0	5448	0.0022810506634414196
0	5468	0.003815677482634783
0	5446	-0.004211761988699436
0	5450	0.0007681081187911332
0	5444	-0.0011550012277439237
0	5456	0.002314487472176552
0	5452	-0.0007720417343080044
0	5448	-0.0007717736880294979
0	5482	0.0065481998026371
0	5472	-0.0019198525696992874
0	5496	0.00458855926990509
0	5516	0.003804933512583375
0	5498	-0.0034070690162479877
0	5520	0.004143386613577604
0	5490	-0.005623313132673502
0	5532	0.007838843390345573
0	5522	-0.0018585518701002002
0	5520	-0.0003703612310346216
0	5536	0.002953300951048732
0	5516	-0.003680936526507139
0	5542	0.004773211199790239
0	5546	0.0007327886414714158
0	5520	-0.004755459725856781
0	5558	0.006940977182239294
0	5540	-0.0032836729660630226
0	5568	0.005102846771478653
0	5538	-0.005462490953505039
0	5552	0.002547832438722253
0	5578	0.004728017840534449
0	5530	-0.008722514845430851
0	5556	0.00472200708463788
0	5546	-0.001814969815313816
0	5524	-0.0039910501800477505
0	5550	0.004714472219347954
0	5542	-0.0014497305965051055
0	5530	-0.0021733094472438097
0	5606	0.013758146204054356
0	5700	0.01700085587799549
0	5678	-0.003972887992858887
0	5594	-0.015151332132518291
0	5570	-0.004325779154896736
0	5492	-0.014052534475922585
0	5446	-0.00828858744353056
0	5458	0.0021629154216498137
0	5486	0.005048683844506741
0	5486	0.0
0	5490	0.0007214572979137301
0	5478	-0.002164788544178009
0	5520	0.007578673772513866
0	5530	0.0018046197947114706
0	5992	0.08336641639471054
0	6306	0.05650734528899193
1	4488	-0.3256819248199463
0	662	-0.6896510124206543
0	2260	0.2967759668827057
0	4868	0.4943888187408447
0	6278	0.2684759795665741
0	6746	0.08869460225105286
0	6828	0.01542416401207447
0	6836	0.001493094488978386
0	6744	-0.01703220047056675
0	6666	-0.014335248619318008
0	6560	-0.01934847980737686
0	6478	-0.014873933978378773
0	6414	-0.011544151231646538
0	6306	-0.0193791501224041
0	6292	-0.002500506117939949
0	6222	-0.012451675720512867
0	6170	-0.009221275337040424
0	6116	-0.009548171423375607
0	6086	-0.005288269836455584
0	6090	0.0007029712432995439
0	6048	-0.007355430629104376
0	6090	0.007329672574996948
0	6074	-0.0027820279356092215
0	6058	-0.00277257920242846
0	6050	-0.0013817243743687868
0	5996	-0.009296666830778122
0	5946	-0.008582512848079205
0	5824	-0.020890410989522934
0	5664	-0.027351362630724907
0	5472	-0.032883092761039734
0	5208	-0.04543055593967438
0	5032	-0.030162464827299118
0	4864	-0.028090201318264008
0	4748	-0.01911814883351326
0	4726	-0.0036282476503401995
0	4694	-0.0053228652104735374
0	4774	0.013460309244692326
0	4824	0.008510734885931015
0	4894	0.012052617967128754
0	4936	0.00730917789041996
0	5012	0.013360210694372654
0	5072	0.010644085705280304
0	5178	0.018962206318974495
0	5182	0.0007208679453469813
0	5258	0.013789599761366844
0	5282	0.004382014274597168
0	5342	0.011018069460988045
0	5400	0.01070505753159523
0	5404	0.0007415463915094733
0	5442	0.007074506022036076
0	5434	-0.0014953830977901816
0	5454	0.0037528146058321
0	5494	0.007535605691373348
0	5456	-0.007184994872659445
0	5480	0.004555174615234137
0	5472	-0.0015238869236782193
0	5458	-0.0026757046580314636
0	5484	0.004984662402421236
0	5460	-0.004611246287822723
0	5462	0.00038477324414998293
0	5476	0.0026935855858027935
0	5486	0.001920688315294683
0	5512	0.004979316610842943
0	5496	-0.003051571547985077
0	5516	0.0037964112125337124
0	5490	-0.0049107871018350124
0	5516	0.00488629937171936
0	5512	-0.0007482602959498763
0	5552	0.007450639735907316
0	5558	0.0011130486382171512
0	5526	-0.005913514643907547
0	5550	0.004421137738972902
0	5536	-0.002571449615061283
0	5532	-0.0007330930093303323
0	5528	-0.0007315289112739265
0	5518	-0.0018258170457556844
0	5546	0.005104955285787582
0	5532	-0.0025493171997368336
0	5540	0.0014555864036083221
0	5534	-0.0010907900286838412
0	5544	0.0018169705290347338
0	5552	0.001452608616091311
0	5586	0.006169926840811968
0	5734	0.0268423929810524
0	5694	-0.007242528256028891
0	5610	-0.015189689584076405
0	5586	-0.004336304496973753
0	5496	-0.016248617321252823
0	5438	-0.010470573790371418
0	5434	-0.0007222041604109108
0	5460	0.0046951184049248695
0	5482	0.003973174840211868
0	5452	-0.005418096669018269
0	5482	0.00542005430907011
0	5492	0.0018068371573463082
0	5496	0.0007228393224067986
0	5676	0.032526593655347824
0	6632	0.17258602380752563
1	5528	-0.19797009229660034
0	1684	-0.6894078254699707
0	1086	-0.10979192703962326
0	4120	0.5725969076156616
0	6014	0.36069318652153015
0	6732	0.13632221519947052
0	6862	0.024496257305145264
0	6842	-0.003737339749932289
0	6778	-0.011861663311719894
0	6710	-0.012507816776633263
0	6612	-0.017896709963679314
0	6552	-0.010886130854487419
0	6434	-0.021278386935591698
0	6354	-0.014349260367453098
0	6294	-0.010710588656365871
0	6218	-0.013509830459952354
0	6174	-0.007799114100635052
0	6142	-0.005656042136251926
0	6088	-0.009514748118817806
0	6104	0.0028108968399465084
0	6076	-0.004901617765426636
0	6104	0.00488343695178628
0	6056	-0.008339124731719494
0	6088	0.005540294107049704
0	6060	-0.004830861929804087
0	5976	-0.014442088082432747
0	5916	-0.010286655277013779
0	5806	-0.018813282251358032
0	5646	-0.027316495776176453
0	5472	-0.029711762443184853
0	5216	-0.044004399329423904
0	5040	-0.03030720353126526
0	4828	-0.035816457122564316
0	4736	-0.015222211368381977
0	4706	-0.004946957342326641
0	4696	-0.0016609271988272667
0	4764	0.01142306812107563
0	4806	0.007139295805245638
0	4862	0.009630155749619007
0	4958	0.01669216714799404
0	4974	0.0028105678502470255
0	5062	0.015607817098498344
0	5104	0.007515389006584883
0	5192	0.015872443094849586
0	5238	0.008355331607162952
0	5270	0.005849806126207113
0	5342	0.01323853898793459
0	5374	0.005913952365517616
0	5420	0.008541718125343323
0	5444	0.004475051537156105
0	5454	0.00187228515278548
0	5478	0.004510995466262102
0	5428	-0.009434911422431469
0	5442	0.002652251860126853
0	5434	-0.0015217805048450828
0	5450	0.0030556898564100266
0	5442	-0.0015329781454056501
0	5420	-0.004228492733091116
0	5456	0.006936505436897278
0	5440	-0.003086657961830497
0	5472	0.006174586713314056
0	5488	0.003082218114286661
0	5470	-0.0034575490280985832
0	5506	0.006886789109557867
0	5480	-0.004949489608407021
0	5486	0.001136607606895268
0	5502	0.0030159088782966137
0	5486	-0.0030019888654351234
0	5488	0.00037365948082879186
0	5498	0.0018610421102494001
0	5514	0.0029677259735763073
0	5508	-0.0011091940104961395
0	5514	0.0011061538243666291
0	5530	0.002942330203950405
0	5526	-0.0007340617012232542
0	5566	0.007327707018703222
0	5546	-0.003657243214547634
0	5578	0.00584432203322649
0	5616	0.00693152379244566
0	5708	0.01676160842180252
0	5734	0.004729393869638443
0	5622	-0.02033824473619461
0	5586	-0.006531599909067154
0	5482	-0.018851052969694138
0	5456	-0.004711624700576067
0	5470	0.002536691492423415
0	5488	0.003261066507548094
0	5492	0.0007244801381602883
0	5532	0.007241653744131327
0	5506	-0.004704917315393686
0	5542	0.006511908024549484
0	5538	-0.0007232401403598487
0	5852	0.05675724521279335
0	6810	0.17276617884635925
1	5352	-0.2608913481235504
0	1188	-0.7456663846969604
0	1388	0.036757949739694595
0	3886	0.47097715735435486
0	5780	0.3607252538204193
0	6590	0.15398459136486053
0	6842	0.04757709428668022
0	6870	0.005242529790848494
0	6824	-0.008540132082998753
0	6744	-0.014732965268194675
0	6672	-0.013161582872271538
0	6590	-0.014885635115206242
0	6452	-0.024897165596485138
0	6382	-0.012560559436678886
0	6310	-0.012857602909207344
0	6230	-0.014227449893951416
0	6206	-0.004255067557096481
0	6170	-0.00636484706774354
0	6130	-0.007049286272376776
0	6104	-0.004567440133541822
0	6102	-0.00035006648977287114
0	6104	0.0003487520443741232
0	6070	-0.005907016806304455
0	6076	0.0010389130329713225
0	6044	-0.005522255785763264
0	6026	-0.0030971472151577473
0	5950	-0.01303795911371708
0	5848	-0.01745758205652237
0	5712	-0.023235682398080826
0	5546	-0.028383832424879074
0	5272	-0.04719039425253868
0	5044	-0.03928596153855324
0	4820	-0.03776044771075249
0	4710	-0.018192242830991745
0	4652	-0.009548896923661232
0	4662	0.001656616572290659
0	4710	0.008037328720092773
0	4730	0.003389217657968402
0	4840	0.018868787214159966
0	4890	0.008675133809447289
0	4922	0.005612262990325689
0	5006	0.014884468168020248
0	5048	0.007512520998716354
0	5166	0.021284783259034157
0	5204	0.006904906127601862
0	5266	0.011341878212988377
0	5324	0.010672882199287415
0	5314	-0.0018501617014408112
0	5386	0.013391860760748386
0	5380	-0.0011211599921807647
0	5440	0.011262387968599796
0	5452	0.0022618465591222048
0	5444	-0.0015141001204028726
0	5418	-0.004940336104482412
0	5438	0.0038161627016961575
0	5472	0.006512578576803207
0	5464	-0.0015378108946606517
0	5462	-0.00038565369322896004
0	5468	0.0011598386336117983
0	5420	-0.009293320588767529
0	5474	0.010463494807481766
0	5440	-0.006579541601240635
0	5466	0.005018594674766064
0	5488	0.004228925798088312
0	5510	0.00420794915407896
0	5560	0.009511490352451801
0	5558	-0.0003783054416999221
0	5622	0.012041392736136913
0	5618	-0.0007484002853743732
0	5544	-0.013778550550341606
0	5478	-0.012239296920597553
0	5450	-0.005174644291400909
0	5446	-0.0007372184772975743
0	5444	-0.00036771013401448727
0	5466	0.004037932027131319
0	5520	0.009895425289869308
0	5494	-0.00475708395242691
0	5494	0.0
0	5506	0.002190900268033147
0	5674	0.030650220811367035
0	6496	0.14969950914382935
0	6008	-0.08830660581588745
1	4376	-0.2943333685398102
0	1456	-0.5300289392471313
0	3728	0.4225351810455322
0	5516	0.3360860049724579
0	6508	0.18641243875026703
0	6636	0.023896943777799606
0	6668	0.0059309047646820545
0	6602	-0.01214247103780508
0	6512	-0.01643875613808632
0	6456	-0.010164323262870312
0	6366	-0.0162357185035944
0	6318	-0.008612439967691898
0	6246	-0.012854847125709057
0	6158	-0.015642961487174034
0	6126	-0.00566826481372118
0	6088	-0.006708566099405289
0	6084	-0.0007042336510494351
0	6010	-0.012992789037525654
0	6036	0.00455261766910553
0	6026	-0.001745322486385703
0	6028	0.0003478986909613013
0	6044	0.0027738288044929504
0	6062	0.0031097750179469585
0	6048	-0.0024104404728859663
0	6012	-0.006179550662636757
0	5944	-0.011637990362942219
0	5830	-0.01946078985929489
0	5656	-0.02964864671230316
0	5470	-0.0316966213285923
0	5210	-0.04456684738397598
0	5014	-0.03375042974948883
0	4864	-0.025735167786478996
0	4786	-0.013126450590789318
0	4806	0.003345899051055312
0	4828	0.003695119172334671
0	4894	0.011190613731741905
0	4940	0.00787707231938839
0	4996	0.00968500692397356
0	5070	0.012917641550302505
0	5086	0.002816637046635151
0	5172	0.015262117609381676
0	5180	0.0014298310270532966
0	5250	0.01259642280638218
0	5314	0.011585948057472706
0	5356	0.0076421997509896755
0	5408	0.0095061669126153
0	5406	-0.0003671431331895292
0	5442	0.0066361078061163425
0	5442	0.0
0	5454	0.002227943390607834
0	5492	0.007080217357724905
0	5474	-0.0033649890683591366
0	5500	0.00487786578014493
0	5496	-0.0007530876318924129
0	5472	-0.00453423336148262
0	5492	0.0037914211861789227
0	5458	-0.006463878322392702
0	5496	0.007241405546665192
0	5520	0.004578172229230404
0	5544	0.0045767175033688545
0	5558	0.002664095489308238
0	5566	0.001517105265520513
0	5616	0.009440017864108086
0	5630	0.002629470080137253
0	5564	-0.012332452461123466
0	5478	-0.015996230766177177
0	5422	-0.010378570295870304
0	5446	0.004434753675013781
0	5434	-0.0022112480364739895
0	5438	0.0007354383706115186
0	5450	0.0022015655413269997
0	5434	-0.002930438844487071
0	5512	0.014263770543038845
0	5486	-0.00474700890481472
0	5624	0.025169314816594124
0	6424	0.14567174017429352
0	5826	-0.10822223871946335
1	4412	-0.2552500367164612
0	1420	-0.5434730052947998
0	3224	0.3358612060546875
0	5376	0.406272828578949
0	6268	0.16852234303951263
0	6602	0.06278746575117111
0	6640	0.007094493601471186
0	6576	-0.011864155530929565
0	6542	-0.0062601263634860516
0	6458	-0.015367165207862854
0	6380	-0.01418302208185196
0	6330	-0.009043226949870586
0	6254	-0.013678905554115772
0	6200	-0.009677997790277004
0	6130	-0.012497618794441223
0	6116	-0.0024911623913794756
0	6054	-0.010999669320881367
0	6048	-0.0010618215892463923
0	6038	-0.001764664426445961
0	6024	-0.0024624187499284744
0	6040	0.0028042953927069902
0	6048	0.001397298532538116
0	6090	0.007309687323868275
0	6084	-0.0010403060587123036
0	6062	-0.0038005299866199493
0	6016	-0.007917928509414196
0	5898	-0.020252643153071404
0	5774	-0.021232392638921738
0	5546	-0.03900681063532829
0	5266	-0.048144157975912094
0	5042	-0.03863934054970741
0	4854	-0.03231239691376686
0	4776	-0.013147545047104359
0	4758	-0.0030078203417360783
0	4774	0.0026828532572835684
0	4832	0.009807237423956394
0	4860	0.0047822375781834126
0	4954	0.016219014301896095
0	4998	0.007663369178771973
0	5036	0.0066782268695533276
0	5106	0.01240533497184515
0	5114	0.0014285034267231822
0	5228	0.020504580810666084
0	5252	0.004343472421169281
0	5326	0.013469403609633446
0	5350	0.004389869049191475
0	5376	0.004778006579726934
0	5422	0.008488651365041733
0	5424	0.0003704984555952251
0	5468	0.008181987330317497
0	5466	-0.00037319466355256736
0	5474	0.001498127356171608
0	5482	0.0015035144751891494
0	5494	0.0022638945374637842
0	5506	0.002272325800731778
0	5484	-0.004180602263659239
0	5494	0.0019066989189013839
0	5484	-0.001911607221700251
0	5458	-0.004979380406439304
0	5480	0.004215689841657877
0	5492	0.0022963283117860556
0	5534	0.00801414530724287
0	5524	-0.0018999126041308045
0	5562	0.007185628637671471
0	5592	0.005644260905683041
0	5650	0.01085654366761446
0	5620	-0.0055869389325380325
0	5546	-0.01371640432626009
0	5450	-0.01772940531373024
0	5418	-0.005893403198570013
0	5408	-0.0018373796483501792
0	5422	0.0025675822980701923
0	5412	-0.001830540713854134
0	5476	0.011702322401106358
0	5480	0.0007303979364223778
0	5460	-0.00364856980741024
0	5530	0.012761457823216915
0	5624	0.01712079346179962
0	6460	0.1520792692899704
0	5644	-0.14751431345939636
1	4264	-0.24920843541622162
0	1424	-0.5166015625
0	3688	0.4221937656402588
0	5558	0.35265275835990906
0	6406	0.15985523164272308
0	6674	0.050236187875270844
0	6752	0.014513067901134491
0	6700	-0.009600472636520863
0	6578	-0.022356880828738213
0	6550	-0.005096221808344126
0	6446	-0.018806736916303635
0	6374	-0.012945604510605335
0	6298	-0.013596354983747005
0	6230	-0.012109268456697464
0	6174	-0.00993295293301344
0	6114	-0.010605952702462673
0	6114	0.0
0	6050	-0.01124951709061861
0	6010	-0.007010247092694044
0	6046	0.006288649048656225
0	6052	0.0010442895581945777
0	6100	0.008323218673467636
0	6100	0.0
0	6098	-0.00034408405190333724
0	6064	-0.005828638095408678
0	5954	-0.01879463717341423
0	5894	-0.01022285781800747
0	5726	-0.028564950451254845
0	5516	-0.03568555787205696
0	5284	-0.03963598608970642
0	5026	-0.04416850209236145
0	4868	-0.026931818574666977
0	4732	-0.022736897692084312
0	4708	-0.003989184740930796
0	4734	0.004342065658420324
0	4786	0.008765718899667263
0	4854	0.011585774831473827
0	4898	0.007578367367386818
0	4992	0.016359396278858185
0	5010	0.0031617404893040657
0	5062	0.009217025712132454
0	5112	0.008935592137277126
0	5174	0.011164063587784767
0	5232	0.010514738038182259
0	5286	0.009848983027040958
0	5324	0.006968385074287653
0	5392	0.0125302504748106
0	5390	-0.00037017842987552285
0	5438	0.008920607157051563
0	5446	0.0014920547837391496
0	5470	0.004492923617362976
0	5488	0.0033819752279669046
0	5464	-0.004526650998741388
0	5480	0.0030298822093755007
0	5464	-0.003041747957468033
0	5474	0.0019083484075963497
0	5434	-0.007656772620975971
0	5440	0.0011518967803567648
0	5488	0.009232071228325367
0	5478	-0.0019236934604123235
0	5514	0.006916692480444908
0	5488	-0.004979825112968683
0	5496	0.0015262126689776778
0	5530	0.006455042399466038
0	5516	-0.002644203370437026
0	5512	-0.0007517855265177786
0	5524	0.0022451449185609818
0	5524	0.0
0	5548	0.004454287700355053
0	5534	-0.0025894276332110167
0	5550	0.0029498161748051643
0	5548	-0.00036762451054528356
0	5548	0.0
0	5558	0.0018290451262146235
0	5546	-0.002190500497817993
0	5564	0.0032805607188493013
0	5586	0.0040037366561591625
0	5572	-0.002544837538152933
0	5610	0.0068998076021671295
0	5682	0.013059724122285843
0	5692	0.0018112660618498921
0	5642	-0.009044208563864231
0	5580	-0.011204415000975132
0	5518	-0.011196590960025787
0	5436	-0.014805007725954056
0	5468	0.005778537597507238
0	5450	-0.0032505448907613754
0	5464	0.0025279580149799585
0	5496	0.005777355283498764
0	5482	-0.0025274711661040783
0	5500	0.0032495276536792517
0	5510	0.0018054452957585454
0	5542	0.005776660051196814
0	5558	0.0028875304851680994
0	5936	0.06820642203092575
0	6420	0.08711303025484085
1	4892	-0.27352795004844666
0	1970	-0.5250484943389893
0	1898	-0.01321893185377121
0	4122	0.4176473319530487
0	5952	0.34672224521636963
0	6464	0.09676078706979752
0	6678	0.04021095111966133
0	6740	0.011568027548491955
0	6654	-0.015928875654935837
0	6572	-0.015084806829690933
0	6500	-0.01316382922232151
0	6402	-0.017818182706832886
0	6348	-0.00976904109120369
0	6254	-0.016930023208260536
0	6232	-0.003948785364627838
0	6174	-0.010376907885074615
0	6124	-0.008917318657040596
0	6090	-0.006044229492545128
0	6046	-0.007795521058142185
0	6018	-0.004942979197949171
0	6024	0.0010557927889749408
0	6030	0.0010522500379011035
0	6054	0.004195119719952345
0	6020	-0.005923826713114977
0	6024	0.0006947499932721257
0	5980	-0.0076191360130906105
0	5900	-0.013815494254231453
0	5822	-0.013442404568195343
0	5638	-0.031662266701459885
0	5486	-0.02620057202875614
0	5230	-0.04436536878347397
0	4992	-0.0411655493080616
0	4864	-0.02176032029092312
0	4744	-0.020063087344169617
0	4756	0.0019993779715150595
0	4752	-0.00067091581877321
0	4812	0.01016099564731121
0	4824	0.002053833333775401
0	4886	0.010728747583925724
0	4994	0.018881339579820633
0	5024	0.005293494556099176
0	5064	0.007119802758097649
0	5154	0.01614774577319622
0	5182	0.0050598750822246075
0	5256	0.013459439389407635
0	5286	0.00548900943249464
0	5320	0.006254752166569233
0	5356	0.006655491888523102
0	5366	0.001857148134149611
0	5422	0.010443994775414467
0	5420	-0.0003743869310710579
0	5462	0.00789186917245388
0	5468	0.0011314350413158536
0	5498	0.005678089801222086
0	5506	0.001519160345196724
0	5472	-0.006477671209722757
0	5488	0.003058181842789054
0	5480	-0.0015331152826547623
0	5480	0.0
0	5496	0.003076055319979787
0	5460	-0.006920681335031986
0	5494	0.006526579614728689
0	5476	-0.0034441850148141384
0	5478	0.0003811992355622351
0	5502	0.004553157836198807
0	5494	-0.0015105931088328362
0	5540	0.008645533584058285
0	5518	-0.004116047639399767
0	5514	-0.0007451471756212413
0	5540	0.004824643023312092
0	5538	-0.0003698771761264652
0	5556	0.0033183800987899303
0	5546	-0.0018379874527454376
0	5532	-0.0025670176837593317
0	5554	0.004025273956358433
0	5542	-0.002191620646044612
0	5594	0.0094822458922863
0	5522	-0.013107432052493095
0	5562	0.007274578791111708
0	5584	0.00399627024307847
0	5552	-0.005807060748338699
0	5572	0.003626517252996564
0	5526	-0.008335446938872337
0	5566	0.0072456770576536655
0	5546	-0.003621351672336459
0	5554	0.0014481910038739443
0	5590	0.006513636559247971
0	5562	-0.005063047166913748
0	5620	0.010482558980584145
0	5684	0.011557214893400669
0	5682	-0.0003607547259889543
0	5642	-0.007205476053059101
0	5564	-0.014038203284144402
0	5532	-0.005756223574280739
0	5446	-0.015464844182133675
0	5456	0.0017988415202125907
0	5458	0.00035985029535368085
0	5460	0.0003600273630581796
0	5498	0.0068429009988904
0	5486	-0.002161123789846897
0	5488	0.00036030408227816224
0	5500	0.0021624737419188023
0	5490	-0.0018026678590103984
0	5548	0.01045899372547865
0	5546	-0.0003606202662922442
0	6130	0.10530617833137512
0	6060	-0.012577862478792667
1	4498	-0.27988484501838684
0	1272	-0.5816035866737366
0	2318	0.1935698688030243
0	4680	0.446092426776886
0	6216	0.2916935682296753
0	6588	0.07035771757364273
0	6740	0.02855711430311203
0	6730	-0.0018650454003363848
0	6648	-0.015181624330580235
0	6604	-0.008091607131063938
0	6476	-0.02339380793273449
0	6410	-0.01199563778936863
0	6318	-0.016641542315483093
0	6264	-0.009730665013194084
0	6228	-0.006464511156082153
0	6140	-0.01574690453708172
0	6128	-0.002139952965080738
0	6074	-0.009595791809260845
0	6068	-0.0010622477857396007
0	6062	-0.0010584250558167696
0	6036	-0.004570276942104101
0	6042	0.001051131752319634
0	6012	-0.005239015445113182
0	6044	0.0055712247267365456
0	6046	0.00034708160092122853
0	6002	-0.007611754350364208
0	5946	-0.009659169241786003
0	5822	-0.021339328959584236
0	5718	-0.017869209870696068
0	5482	-0.04064527153968811
0	5278	-0.03525101765990257
0	5070	-0.035781458020210266
0	4838	-0.03905943036079407
0	4764	-0.01228487677872181
0	4710	-0.008960474282503128
0	4720	0.0016732855001464486
0	4778	0.009807237423956394
0	4804	0.004445508122444153
0	4884	0.013830302283167839
0	4948	0.011177867650985718
0	4992	0.007759593892842531
0	5062	0.01245344802737236
0	5102	0.007173601072281599
0	5192	0.016258791089057922
0	5182	-0.001818269956856966
0	5284	0.018664682283997536
0	5332	0.008829480037093163
0	5352	0.0036969943903386593
0	5414	0.011511895805597305
0	5402	-0.0022371644154191017
0	5434	0.00599034084007144
0	5438	0.0007516159676015377
0	5436	-0.00037723511923104525
0	5478	0.007950730621814728
0	5466	-0.002279779640957713
0	5464	-0.0003813639923464507
0	5492	0.005357416346669197
0	5482	-0.0019189192680642009
0	5482	0.0
0	5480	-0.00038520304951816797
0	5452	-0.005392912309616804
0	5490	0.007310785818845034
0	5498	0.0015349783934652805
0	5502	0.0007642630953341722
0	5488	-0.0026624067686498165
0	5522	0.006434113252907991
0	5532	0.001882860902696848
0	5526	-0.0011243956396356225
0	5558	0.0059698522090911865
0	5510	-0.008917402476072311
0	5506	-0.0007405395735986531
0	5522	0.002952792216092348
0	5500	-0.004048632923513651
0	5534	0.006241738796234131
0	5522	-0.0021983657497912645
0	5534	0.0021938111167401075
0	5532	-0.0003650789731182158
0	5542	0.0018231762805953622
0	5558	0.002913717646151781
0	5518	-0.007277932018041611
0	5562	0.00800009723752737
0	5550	-0.0021801532711833715
0	5556	0.001089337863959372
0	5548	-0.001451396383345127
0	5544	-0.0007253910880535841
0	5702	0.028639445081353188
0	5678	-0.004344048909842968
0	5630	-0.008678358048200607
0	5608	-0.003974036313593388
0	5518	-0.016245096921920776
0	5446	-0.012993106618523598
0	5430	-0.0028874611016362906
0	5452	0.003971692640334368
0	5468	0.0028893037233501673
0	5444	-0.004334842786192894
0	5484	0.007226651534438133
0	5478	-0.0010842459741979837
0	5528	0.009038322605192661
0	5524	-0.0007230570772662759
0	5532	0.0014464105479419231
0	5844	0.0564025342464447
0	6676	0.15010103583335876
1	5244	-0.25656646490097046
0	1558	-0.6614190340042114
0	1548	-0.0018381226109340787
0	4234	0.5060413479804993
0	5972	0.33013373613357544
0	6596	0.11819972097873688
0	6760	0.030859937891364098
0	6752	-0.0014940983382984996
0	6720	-0.005930831655859947
0	6630	-0.016561979427933693
0	6554	-0.013893628492951393
0	6488	-0.01199258677661419
0	6378	-0.019874488934874535
0	6344	-0.006112323142588139
0	6250	-0.016834013164043427
0	6174	-0.013564161956310272
0	6170	-0.0007116002961993217
0	6114	-0.009929312393069267
0	6108	-0.001060120644979179
0	6062	-0.008096026256680489
0	6066	0.0007014016155153513
0	6080	0.002446126891300082
0	6056	-0.0041784667409956455
0	6088	0.00555157195776701
0	6050	-0.006569545250386
0	6016	-0.005858701653778553
0	5928	-0.015121313743293285
0	5816	-0.019200876355171204
0	5614	-0.03457404300570488
0	5376	-0.040789276361465454
0	5112	-0.04558378458023071
0	4940	-0.029721105471253395
0	4752	-0.03186512738466263
0	4708	-0.00732519431039691
0	4678	-0.004981347359716892
0	4708	0.005017281509935856
0	4796	0.014873909763991833
0	4800	0.0006836516549810767
0	4880	0.013826795853674412
0	4934	0.009433083236217499
0	4990	0.009880028665065765
0	5062	0.012820817530155182
0	5100	0.006824303884059191
0	5202	0.01845908723771572
0	5236	0.006195711903274059
0	5304	0.012468217872083187
0	5380	0.014009560458362103
0	5398	0.00333423912525177
0	5446	0.00893078651279211
0	5452	0.001120950561016798
0	5480	0.005251050461083651
0	5486	0.0011293621500954032
0	5460	-0.004912210162729025
0	5476	0.003034287365153432
0	5440	-0.0068536619655787945
0	5470	0.005733579397201538
0	5454	-0.0030685828533023596
0	5472	0.0034626482520252466
0	5472	0.0
0	5454	-0.0034734730143100023
0	5482	0.005400470457971096
0	5470	-0.0023089947644621134
0	5470	0.0
0	5506	0.00687197782099247
0	5490	-0.0030387823935598135
0	5518	0.005290671717375517
0	5556	0.007143752183765173
0	5508	-0.008980915881693363
0	5538	0.0055883959867060184
0	5552	0.0025973061565309763
0	5526	-0.0048052044585347176
0	5538	0.002210487611591816
0	5536	-0.0003673409519251436
0	5540	0.000732725951820612
0	5514	-0.0047529092989861965
0	5528	0.002554930979385972
0	5542	0.002551454119384289
0	5520	-0.004005486145615578
0	5552	0.005821851547807455
0	5542	-0.001818159711547196
0	5534	-0.0014537348179146647
0	5552	0.003269833978265524
0	5530	-0.003994867205619812
0	5572	0.007623334880918264
0	5540	-0.005804883316159248
0	5566	0.004713617730885744
0	5676	0.01993066631257534
0	5646	-0.005428357981145382
0	5604	-0.007591733243316412
0	5540	-0.01155916228890419
0	5516	-0.00433244276791811
0	5450	-0.011911780573427677
0	5452	0.00036100647412240505
0	5468	0.0028883647173643112
0	5446	-0.003972409758716822
0	5480	0.006140804849565029
0	5456	-0.004335677716881037
0	5468	0.0021691450383514166
0	5522	0.00976350624114275
0	5530	0.001446584821678698
0	5738	0.037616193294525146
0	6630	0.16110970079898834
1	5274	-0.24331599473953247
0	2446	-0.5082430839538574
0	1342	-0.20215584337711334
0	3664	0.436296671628952
0	5682	0.3836550712585449
0	6454	0.14663982391357422
0	6772	0.06004834175109863
0	6762	-0.0018739225342869759
0	6712	-0.009298750199377537
0	6676	-0.006646562833338976
0	6572	-0.01906927302479744
0	6496	-0.013847051188349724
0	6394	-0.018480492755770683
0	6336	-0.01045459508895874
0	6240	-0.017224468290805817
0	6174	-0.011802012100815773
0	6142	-0.005704235285520554
0	6068	-0.013149010948836803
0	6060	-0.001417082967236638
0	6038	-0.0038845008239150047
0	6042	0.0007038370822556317
0	6024	-0.0031563444063067436
0	6016	-0.0013982753735035658
0	6028	0.002090470865368843
0	6024	-0.00069461326347664
0	6002	-0.003807853441685438
0	5982	-0.003451052587479353
0	5868	-0.019619092345237732
0	5770	-0.016832897439599037
0	5594	-0.03022496961057186
0	5380	-0.03697006776928902
0	5158	-0.03832872956991196
0	4924	-0.03977968171238899
0	4816	-0.017994601279497147
0	4710	-0.01754908636212349
0	4702	-0.0013316023396328092
0	4744	0.007059535477310419
0	4802	0.009860927239060402
0	4890	0.015129460021853447
0	4924	0.005907153245061636
0	4996	0.012637490406632423
0	5024	0.004960317630320787
0	5082	0.01036504004150629
0	5170	0.015850143507122993
0	5194	0.00435324152931571
0	5244	0.009126974269747734
0	5282	0.006975975818932056
0	5334	0.009596575051546097
0	5390	0.010381649248301983
0	5380	-0.0018615734297782183
0	5442	0.011589073576033115
0	5438	-0.0007504877867177129
0	5450	0.002259745029732585
0	5454	0.0007559340447187424
0	5454	0.0
0	5472	0.003426395822316408
0	5430	-0.008021901361644268
0	5474	0.008433534763753414
0	5476	0.00038430991116911173
0	5484	0.0015401398995891213
0	5500	0.0030824558343738317
0	5468	-0.006160164251923561
0	5492	0.00461095105856657
0	5492	0.0
0	5518	0.004955715965479612
0	5488	-0.0056889294646680355
0	5494	0.0011321608908474445
0	5510	0.0030049204360693693
0	5486	-0.004487490747123957
0	5516	0.005588604137301445
0	5496	-0.0037120904307812452
0	5522	0.004810835234820843
0	5546	0.004427172709256411
0	5512	-0.006253985688090324
0	5550	0.006975122261792421
0	5544	-0.0010989414295181632
0	5548	0.0007312881643883884
0	5556	0.0014602093724533916
0	5528	-0.0051038386300206184
0	5564	0.006556581240147352
0	5542	-0.004002328962087631
0	5566	0.004363530781120062
0	5564	-0.000363345694495365
0	5552	-0.0021785700228065252
0	5554	0.00036287980037741363
0	5520	-0.006165228318423033
0	5540	0.0036255528684705496
0	5540	0.0
0	5532	-0.0014486805303022265
0	5574	0.007603002712130547
0	5554	-0.0036185123026371002
0	5546	-0.0014469337183982134
0	5538	-0.0014462536200881004
0	5546	0.0014458528021350503
0	5534	-0.002168073784559965
0	5518	-0.0028904867358505726
0	5586	0.012282350100576878
0	5562	-0.004332547076046467
0	5562	0.0
0	5674	0.020202992483973503
0	5654	-0.0036042530555278063
0	5638	-0.002880668267607689
0	5584	-0.009715491905808449
0	5538	-0.008274273946881294
0	5442	-0.017265358939766884
0	5450	0.0014397121267393231
0	5438	-0.0021607866510748863
0	5448	0.0018018450355157256
0	5484	0.0064908526837825775
0	5478	-0.0010820949682965875
0	5490	0.0021653093863278627
0	5488	-0.0003609977720770985
0	5508	0.003611672902479768
0	5828	0.05780625343322754
0	6572	0.13417655229568481
1	5056	-0.27173978090286255
0	1806	-0.584175169467926
0	1478	-0.060305945575237274
0	4170	0.5075861215591431
0	6142	0.3750380277633667
0	6672	0.10043457895517349
0	6750	0.014677287079393864
0	6730	-0.0037351991049945354
0	6654	-0.014089206233620644
0	6608	-0.008469686843454838
0	6466	-0.025974344462156296
0	6412	-0.009820801205933094
0	6332	-0.014476842246949673
0	6266	-0.011888178996741772
0	6214	-0.009327019564807415
0	6110	-0.018594006076455116
0	6094	-0.002852863632142544
0	6066	-0.004979016724973917
0	6044	-0.003900939831510186
0	6038	-0.0010607204167172313
0	6000	-0.006694383919239044
0	6030	0.00526802521198988
0	6006	-0.004199867136776447
0	6016	0.00174426706507802
0	5990	-0.0045211100950837135
0	5952	-0.006588224321603775
0	5904	-0.008299808017909527
0	5794	-0.018974896520376205
0	5706	-0.015154995024204254
0	5518	-0.032399266958236694
0	5326	-0.03329017758369446
0	5098	-0.03947049379348755
0	4918	-0.030579999089241028
0	4814	-0.017330829054117203
0	4752	-0.010295012965798378
0	4754	0.00033467201865278184
0	4788	0.005750949960201979
0	4824	0.0061573549173772335
0	4886	0.010720832273364067
0	4914	0.004891512915492058
0	4994	0.014114989899098873
0	5062	0.012102515436708927
0	5118	0.0100472467020154
0	5182	0.011566543020308018
0	5226	0.008004268631339073
0	5278	0.00951660517603159
0	5312	0.006254138890653849
0	5356	0.00813258532434702
0	5394	0.007054455578327179
0	5430	0.006710158661007881
0	5480	0.009355003945529461
0	5474	-0.0011262529296800494
0	5460	-0.0026370976120233536
0	5484	0.004536290653049946
0	5454	-0.005689432844519615
0	5450	-0.0007611701148562133
0	5440	-0.001909004058688879
0	5454	0.0026805202942341566
0	5466	0.0023025854025036097
0	5450	-0.0030748338904231787
0	5498	0.009228521026670933
0	5500	0.0003840983263216913
0	5506	0.0011493372730910778
0	5528	0.004198473412543535
0	5508	-0.0037995364982634783
0	5526	0.003403289942070842
0	5498	-0.005268373526632786
0	5518	0.0037464408669620752
0	5538	0.0037302763666957617
0	5522	-0.002972173038870096
0	5544	0.004071410279721022
0	5496	-0.00885303970426321
0	5542	0.008461585268378258
0	5524	-0.0033024693839251995
0	5512	-0.002197050955146551
0	5526	0.0025587601121515036
0	5516	-0.0018249285640195012
0	5548	0.005832533352077007
0	5530	-0.0032769774552434683
0	5540	0.0018190417904406786
0	5568	0.005089921876788139
0	5554	-0.002543604699894786
0	5584	0.005447941832244396
0	5574	-0.0018146185902878642
0	5554	-0.0036272625438869
0	5572	0.003262563841417432
0	5564	-0.0014489602763205767
0	5568	0.000723938224837184
0	5532	-0.006510965991765261
0	5546	0.0025310353375971317
0	5540	-0.0010841023176908493
0	5550	0.0018063802272081375
0	5570	0.003611672902479768
0	5526	-0.007942620664834976
0	5550	0.004332390613853931
0	5538	-0.0021656479220837355
0	5570	0.005774644203484058
0	5566	-0.0007215180667117238
0	5554	-0.00216392963193357
0	5570	0.0028849621303379536
0	5546	-0.004326194990426302
0	5548	0.00036051194183528423
0	5558	0.0018019966082647443
0	5548	-0.0018018234986811876
0	5576	0.005044378340244293
0	5566	-0.0018008715705946088
0	5690	0.02232544682919979
0	5680	-0.0017985611921176314
0	5630	-0.008985694497823715
0	5590	-0.007184252142906189
0	5498	-0.016518834978342056
0	5440	-0.010418412275612354
0	5422	-0.003235509153455496
0	5422	0.0
0	5446	0.004322143737226725
0	5450	0.0007208245806396008
0	5466	0.002885413123294711
0	5448	-0.003248003078624606
0	5508	0.010834497399628162
0	5680	0.031063377857208252
0	6580	0.1624099314212799
1	5304	-0.22882966697216034
0	1776	-0.6336206793785095
0	1342	-0.07975693047046661
0	3866	0.476040780544281
0	5770	0.36294782161712646
0	6534	0.14542225003242493
0	6754	0.041620947420597076
0	6766	0.002253351965919137
0	6706	-0.01118193008005619
0	6638	-0.012584048323333263
0	6544	-0.01727919839322567
0	6456	-0.016078149899840355
0	6360	-0.017444394528865814
0	6316	-0.007956217043101788
0	6264	-0.00936104916036129
0	6172	-0.016492774710059166
0	6140	-0.005720142275094986
0	6068	-0.012835139408707619
0	6046	-0.003911667503416538
0	6020	-0.004610419739037752
0	5986	-0.006010465323925018
0	6018	0.005638766568154097
0	5978	-0.007023869547992945
0	5998	0.003500542603433132
0	5954	-0.007676471956074238
0	5942	-0.002087464788928628
0	5868	-0.012837267480790615
0	5784	-0.014536728151142597
0	5716	-0.01174912229180336
0	5542	-0.030057696625590324
0	5360	-0.03162870556116104
0	5168	-0.033355724066495895
0	4984	-0.03135009855031967
0	4898	-0.014355824328958988
0	4798	-0.016597511246800423
0	4756	-0.007008643820881844
0	4784	0.004719100892543793
0	4800	0.0027268079575151205
0	4880	0.013788032345473766
0	4910	0.005225327797234058
0	4996	0.015131077729165554
0	5064	0.012073719874024391
0	5126	0.011099839583039284
0	5200	0.013346479274332523
0	5214	0.002542064990848303
0	5294	0.014618991874158382
0	5330	0.0066139185801148415
0	5372	0.007754704914987087
0	5400	0.005192043725401163
0	5396	-0.00074469402898103
0	5428	0.005980712361633778
0	5440	0.0022505908273160458
0	5472	0.006023340858519077
0	5458	-0.0026436045300215483
0	5416	-0.007957861758768559
0	5440	0.004562853369861841
0	5406	-0.006484671961516142
0	5444	0.007268924731761217
0	5440	-0.0007668123580515385
0	5450	0.0019204177660867572
0	5468	0.0034587890841066837
0	5448	-0.003840442281216383
0	5476	0.005367000587284565
0	5472	-0.000764311698731035
0	5480	0.0015230552526190877
0	5496	0.0030329835135489702
0	5490	-0.0011320754420012236
0	5522	0.006011045537889004
0	5490	-0.005983992479741573
0	5496	0.00111774867400527
0	5510	0.002598623977974057
0	5520	0.0018502756720408797
0	5552	0.005904277320951223
0	5534	-0.00331247691065073
0	5542	0.0014692018739879131
0	5530	-0.002199386479333043
0	5540	0.0018301834352314472
0	5550	0.0018278417410328984
0	5530	-0.0036517230328172445
0	5566	0.0065679047256708145
0	5554	-0.0021870406344532967
0	5540	-0.0025495956651866436
0	5570	0.005460104905068874
0	5552	-0.0032741164322942495
0	5566	0.0025450843386352062
0	5558	-0.0014530132757499814
0	5550	-0.0014519758988171816
0	5566	0.0029014241881668568
0	5550	-0.0028992861043661833
0	5556	0.0010865103686228395
0	5530	-0.004705201368778944
0	5522	-0.0014472128823399544
0	5558	0.006509553175419569
0	5534	-0.004337558057159185
0	5536	0.0003613282460719347
0	5528	-0.0014448256697505713
0	5546	0.0032502315007150173
0	5564	0.003249136731028557
0	5554	-0.0018046197947114706
0	5558	0.0007215701043605804
0	5562	0.0007213012431748211
0	5548	-0.0025237654335796833
0	5572	0.004325727000832558
0	5522	-0.009010848589241505
0	5566	0.007930118590593338
0	5574	0.0014416319318115711
0	5604	0.005404691211879253
0	5672	0.01224592700600624
0	5682	0.0017995537491515279
0	5646	-0.006472492124885321
0	5562	-0.015095244161784649
0	5512	-0.00898483395576477
0	5418	-0.016894320026040077
0	5400	-0.003238031407818198
0	5440	0.007202189415693283
0	5426	-0.0025226741563528776
0	5454	0.00504935160279274
0	5458	0.0007217524107545614
0	5476	0.0032499968074262142
0	5524	0.008670520037412643
0	6086	0.10153690725564957
0	6340	0.04573719576001167
1	4074	-0.406039834022522
0	824	-0.5875688791275024
0	2802	0.368050217628479
0	5192	0.4523830711841583
0	6456	0.23976024985313416
0	6742	0.05393919721245766
0	6788	0.008611759170889854
0	6716	-0.013376269489526749
0	6682	-0.006271596997976303
0	6570	-0.02051808126270771
0	6494	-0.013836630620062351
0	6398	-0.017380598932504654
0	6324	-0.013327090069651604
0	6266	-0.010398240759968758
0	6174	-0.016425834968686104
0	6164	-0.0017793806036934257
0	6100	-0.011354899033904076
0	6066	-0.006017415318638086
0	6026	-0.007061814423650503
0	5994	-0.005634067114442587
0	6012	0.003160223364830017
0	5986	-0.0045489538460969925
0	5994	0.0013949108542874455
0	6004	0.001738042221404612
0	5954	-0.008661207742989063
0	5902	-0.008981726132333279
0	5838	-0.01102624461054802
0	5778	-0.010315659455955029
0	5656	-0.020944684743881226
0	5514	-0.02443837746977806
0	5344	-0.029396507889032364
0	5142	-0.03467612713575363
0	4994	-0.02479366585612297
0	4862	-0.0218458641320467
0	4812	-0.00829004030674696
0	4802	-0.0016732107615098357
0	4810	0.001353210536763072
0	4864	0.009237190708518028
0	4876	0.002074616961181164
0	4958	0.014325646683573723
0	4994	0.006348907947540283
0	5060	0.011743214912712574
0	5152	0.01650026999413967
0	5166	0.002528627635911107
0	5230	0.011636504903435707
0	5264	0.006217464804649353
0	5330	0.012135772965848446
0	5360	0.005542417988181114
0	5400	0.007422160357236862
0	5442	0.007823560386896133
0	5424	-0.0033644859213382006
0	5478	0.010130572132766247
0	5466	-0.002258412539958954
0	5462	-0.000755306042265147
0	5472	0.0018947289790958166
0	5432	-0.007602057419717312
0	5454	0.0041936179623007774
0	5442	-0.0022930228151381016
0	5456	0.0026809307746589184
0	5478	0.0042182765901088715
0	5454	-0.0046028150245547295
0	5470	0.0030663872603327036
0	5486	0.0030599755700677633
0	5486	0.0
0	5504	0.0034181540831923485
0	5454	-0.00945346336811781
0	5484	0.0056488667614758015
0	5498	0.0026250327937304974
0	5514	0.002988196676596999
0	5518	0.0007440937915816903
0	5512	-0.0011122783180326223
0	5546	0.006282799877226353
0	5526	-0.0036847342271357775
0	5534	0.0014705162029713392
0	5540	0.001100405934266746
0	5526	-0.0025627571158111095
0	5528	0.0003655237960629165
0	5508	-0.003650834085419774
0	5528	0.003647549543529749
0	5522	-0.0010934140300378203
0	5532	0.0018214713782072067
0	5542	0.0018202780047431588
0	5508	-0.006186542566865683
0	5556	0.008731717243790627
0	5534	-0.003999757580459118
0	5516	-0.0032712998799979687
0	5536	0.0036329287104308605
0	5510	-0.0047204638831317425
0	5536	0.004718522075563669
0	5512	-0.004353452008217573
0	5526	0.0025389916263520718
0	5550	0.004350663628429174
0	5518	-0.005798081401735544
0	5556	0.006883891765028238
0	5562	0.001086471020244062
0	5584	0.00398233300074935
0	5670	0.015555099584162235
0	5674	0.0007226826273836195
0	5674	0.0
0	5590	-0.015145687386393547
0	5508	-0.01477868016809225
0	5466	-0.007569749839603901
0	5438	-0.005048926454037428
0	5444	0.001082485425285995
0	5464	0.00361023866571486
0	5440	-0.0043342686258256435
0	5496	0.010118531994521618
0	5470	-0.0046987952664494514
0	5530	0.010845855809748173
0	5916	0.06977416574954987
0	6644	0.13128313422203064
1	4828	-0.3253119885921478
0	1036	-0.6821943521499634
0	2020	0.18190333247184753
0	4746	0.515156090259552
0	6202	0.27652570605278015
0	6692	0.0926591232419014
0	6812	0.022527877241373062
0	6786	-0.0048415930941700935
0	6746	-0.007391256280243397
0	6674	-0.01320390310138464
0	6584	-0.016389859840273857
0	6452	-0.023888520896434784
0	6394	-0.010437662713229656
0	6324	-0.012534170411527157
0	6248	-0.013546914793550968
0	6228	-0.0035509683657437563
0	6142	-0.015218904241919518
0	6126	-0.0028236289508640766
0	6050	-0.013376670889556408
0	6048	-0.00035107016447000206
0	6022	-0.004549537319689989
0	6016	-0.0010464994702488184
0	6034	0.0031289837788790464
0	6008	-0.0045042443089187145
0	5994	-0.0024177671875804663
0	5960	-0.005853054113686085
0	5870	-0.01545223593711853
0	5794	-0.01301875151693821
0	5710	-0.014367489144206047
0	5600	-0.018836691975593567
0	5426	-0.02997484803199768
0	5236	-0.03261914849281311
0	5046	-0.03185354173183441
0	4904	-0.023410452529788017
0	4834	-0.011530352756381035
0	4758	-0.012613410130143166
0	4768	0.0016776083502918482
0	4778	0.0016970053547993302
0	4836	0.009955714456737041
0	4924	0.015272121876478195
0	4954	0.005259651690721512
0	5032	0.013806612230837345
0	5098	0.01178122591227293
0	5152	0.009714093990623951
0	5230	0.014130775816738605
0	5286	0.01020792592316866
0	5338	0.009533355012536049
0	5358	0.0036847793962806463
0	5366	0.0014808964915573597
0	5428	0.0115255918353796
0	5438	0.0018661358626559377
0	5446	0.0014983518049120903
0	5448	0.00037592570879496634
0	5476	0.005282354541122913
0	5486	0.0018928878707811236
0	5462	-0.004557538777589798
0	5492	0.005714938975870609
0	5464	-0.00534677691757679
0	5454	-0.0019135826732963324
0	5464	0.0019167124992236495
0	5464	0.0
0	5472	0.0015343306586146355
0	5462	-0.0019150240113958716
0	5472	0.0019099521450698376
0	5458	-0.002664298517629504
0	5474	0.003032906912267208
0	5488	0.002641841769218445
0	5478	-0.0018785222200676799
0	5524	0.008603491820394993
0	5512	-0.002234803279861808
0	5534	0.0040822383016347885
0	5526	-0.0014791440917178988
0	5522	-0.0007373272092081606
0	5558	0.006618701387196779
0	5520	-0.006969067268073559
0	5542	0.0040275827050209045
0	5536	-0.001096718362532556
0	5520	-0.0029210583306849003
0	5536	0.002918181475251913
0	5518	-0.00327956466935575
0	5554	0.006555546075105667
0	5538	-0.002911526011303067
0	5552	0.0025461644399911165
0	5570	0.003271577414125204
0	5554	-0.002906413283199072
0	5550	-0.0007263043080456555
0	5530	-0.003629588522017002
0	5556	0.004717380739748478
0	5544	-0.002176041714847088
0	5518	-0.004712193738669157
0	5526	0.001449432922527194
0	5536	0.0018111129757016897
0	5552	0.002896661637350917
0	5596	0.007961494848132133
0	5584	-0.0021696940530091524
0	5692	0.01951243169605732
0	5696	0.0007217350066639483
0	5648	-0.008649999275803566
0	5596	-0.009361273609101772
0	5448	-0.026632115244865417
0	5438	-0.0018001582939177752
0	5398	-0.007204784080386162
0	5434	0.006489292718470097
0	5436	0.00036070699570700526
0	5470	0.006136519368737936
0	5496	0.004694044589996338
0	5476	-0.0036118035204708576
0	5522	0.008310149423778057
0	5974	0.08165526390075684
0	6570	0.10738608986139297
1	4620	-0.3491411805152893
0	676	-0.71011883020401
0	2416	0.3227043151855469
0	4798	0.45050498843193054
0	6292	0.28394046425819397
0	6736	0.08399122208356857
0	6836	0.01877652294933796
0	6792	-0.00819468591362238
0	6746	-0.008501934818923473
0	6642	-0.019080467522144318
0	6572	-0.012754946947097778
0	6472	-0.01810632087290287
0	6388	-0.015123872086405754
0	6348	-0.00716589018702507
0	6248	-0.017834637314081192
0	6226	-0.003908192738890648
0	6162	-0.011333451606333256
0	6112	-0.00882996991276741
0	6074	-0.0066924975253641605
0	6018	-0.00983502995222807
0	6020	0.0003500828752294183
0	6006	-0.0024422863498330116
0	6006	0.0
0	5986	-0.003465203568339348
0	5952	-0.00587219325825572
0	5934	-0.003100205445662141
0	5826	-0.018554575741291046
0	5738	-0.015088300220668316
0	5636	-0.01746715046465397
0	5436	-0.03431551903486252
0	5260	-0.030394786968827248
0	5074	-0.03200385347008705
0	4946	-0.021482277661561966
0	4850	-0.015886850655078888
0	4778	-0.011911720968782902
0	4782	0.0006673340103588998
0	4776	-0.0010119978105649352
0	4846	0.011944984085857868
0	4916	0.012078683823347092
0	4952	0.00627797469496727
0	5008	0.00986262783408165
0	5050	0.0074655162170529366
0	5160	0.019718680530786514
0	5188	0.005056403111666441
0	5254	0.012002472765743732
0	5310	0.010245651938021183
0	5318	0.0014718868769705296
0	5368	0.009247157722711563
0	5404	0.006688632071018219
0	5422	0.0033582509495317936
0	5482	0.011235814541578293
0	5452	-0.005636837333440781
0	5474	0.004148073960095644
0	5444	-0.005675440654158592
0	5442	-0.00037966034142300487
0	5468	0.004951563663780689
0	5446	-0.00420221546664834
0	5460	0.002680622972548008
0	5450	-0.0019181340467184782
0	5454	0.0007681671413592994
0	5450	-0.000768078665714711
0	5468	0.003452155739068985
0	5508	0.007652183063328266
0	5488	-0.0038124285638332367
0	5518	0.005695553962141275
0	5476	-0.007936608046293259
0	5524	0.009030930697917938
0	5524	0.0
0	5492	-0.005967254750430584
0	5542	0.009290572255849838
0	5512	-0.00555404694750905
0	5510	-0.00036912172799929976
0	5530	0.003680800786241889
0	5494	-0.006610437296330929
0	5534	0.007331199012696743
0	5524	-0.0018296699272468686
0	5518	-0.0010963709792122245
0	5526	0.0014600494178012013
0	5500	-0.0047406041994690895
0	5534	0.0061956364661455154
0	5504	-0.005463021341711283
0	5522	0.003277375129982829
0	5544	0.004003979731351137
0	5514	-0.005457654595375061
0	5558	0.008001163601875305
0	5524	-0.006178373005241156
0	5550	0.004723036661744118
0	5570	0.0036308185663074255
0	5562	-0.0014513612259179354
0	5606	0.007977084256708622
0	5680	0.013403692282736301
0	5712	0.005788153503090143
0	5684	-0.005057194735854864
0	5628	-0.010103682987391949
0	5568	-0.010816267691552639
0	5446	-0.021986471489071846
0	5470	0.004325987305492163
0	5456	-0.0025243114214390516
0	5478	0.003968397155404091
0	5474	-0.0007215874502435327
0	5464	-0.0018047066405415535
0	5500	0.0064988206140697
0	5504	0.0007221346604637802
0	5676	0.03105664812028408
0	6758	0.19515420496463776
1	5166	-0.2850424349308014
0	1576	-0.6441541314125061
0	1214	-0.06652210652828217
0	3790	0.48621508479118347
0	5838	0.3907601237297058
0	6598	0.14472882449626923
0	6824	0.042740970849990845
0	6822	-0.000375159434042871
0	6752	-0.01302648801356554
0	6712	-0.0073869796469807625
0	6600	-0.020537646487355232
0	6524	-0.013845200650393963
0	6452	-0.01303938403725624
0	6366	-0.01549233216792345
0	6302	-0.01147378422319889
0	6210	-0.016425248235464096
0	6174	-0.00640706205740571
0	6114	-0.010649248957633972
0	6072	-0.007435558829456568
0	6054	-0.0031783401500433683
0	6010	-0.007747115567326546
0	6022	0.002105878898873925
0	6002	-0.0034985013771802187
0	6010	0.001394959632307291
0	5966	-0.007648626808077097
0	5940	-0.004506794735789299
0	5912	-0.00484015978872776
0	5846	-0.011381926946341991
0	5738	-0.01858842559158802
0	5610	-0.022022895514965057
0	5434	-0.030482172966003418
0	5252	-0.031472645699977875
0	5038	-0.036238428205251694
0	4896	-0.02353799343109131
0	4818	-0.012850788421928883
0	4766	-0.00861545279622078
0	4822	0.009373011998832226
0	4816	-0.0010155950440093875
0	4858	0.007190549746155739
0	4882	0.004153782036155462
0	4944	0.010845101438462734
0	5028	0.014836620539426804
0	5054	0.004633094649761915
0	5142	0.015812549740076065
0	5182	0.007240605540573597
0	5242	0.010934803634881973
0	5312	0.012832734733819962
0	5338	0.004791684448719025
0	5380	0.007777489256113768
0	5402	0.004091399256139994
0	5446	0.008216006681323051
0	5422	-0.004497245419770479
0	5460	0.007147424854338169
0	5480	0.0037746294401586056
0	5474	-0.001136177103035152
0	5476	0.0003799055120907724
0	5458	-0.0034292247146368027
0	5458	0.0
0	5454	-0.0007661465788260102
0	5452	-0.0003837691037915647
0	5464	0.0023049439769238234
0	5448	-0.0030726685654371977
0	5454	0.0011508067836984992
0	5474	0.00382584729231894
0	5460	-0.0026682591997087
0	5514	0.010250050574541092
0	5492	-0.004156275652348995
0	5492	0.0
0	5518	0.004870676901191473
0	5496	-0.004104426596313715
0	5526	0.005575655493885279
0	5510	-0.0029629997443407774
0	5526	0.002954209689050913
0	5516	-0.0018410328775644302
0	5520	0.0007347268401645124
0	5530	0.0018330237362533808
0	5520	-0.0018298038048669696
0	5538	0.003289473708719015
0	5550	0.0021903140004724264
0	5536	-0.0025527258403599262
0	5538	0.0003643783857114613
0	5524	-0.0025492243003100157
0	5562	0.0069150421768426895
0	5526	-0.006547041703015566
0	5602	0.0138176791369915
0	5722	0.02180047705769539
0	5674	-0.008707219734787941
0	5636	-0.006884224247187376
0	5536	-0.0180969275534153
0	5492	-0.007958711124956608
0	5432	-0.010850171558558941
0	5420	-0.002170453080907464
0	5444	0.004341638647019863
0	5448	0.0007236500969156623
0	5488	0.0072376360185444355
0	5480	-0.0014472827315330505
0	5512	0.00579031789675355
0	5530	0.003256661118939519
0	5828	0.0539034828543663
0	6808	0.17693576216697693
1	5236	-0.28159594535827637
0	1022	-0.7561728954315186
0	1508	0.08961498737335205
0	4126	0.4949646592140198
0	6056	0.36811456084251404
0	6698	0.12203467637300491
0	6882	0.034718725830316544
0	6876	-0.0011225164635106921
0	6794	-0.015214110724627972
0	6710	-0.015466194599866867
0	6646	-0.01169946976006031
0	6520	-0.02287886291742325
0	6454	-0.011912353336811066
0	6340	-0.020466050133109093
0	6272	-0.012148641981184483
0	6240	-0.005694288294762373
0	6132	-0.019159354269504547
0	6122	-0.0017692225519567728
0	6070	-0.009173664264380932
0	6064	-0.0010551861487329006
0	6044	-0.0035055328626185656
0	6014	-0.005239564459770918
0	6028	0.002436703769490123
0	5990	-0.006591577082872391
0	5958	-0.005533460061997175
0	5924	-0.005863416939973831
0	5844	-0.01376115158200264
0	5768	-0.013048255816102028
0	5638	-0.02228902466595173
0	5466	-0.029522152617573738
0	5278	-0.03251807391643524
0	5114	-0.02835996448993683
0	4986	-0.021624542772769928
0	4834	-0.025185856968164444
0	4776	-0.009572957642376423
0	4786	0.0016622155671939254
0	4794	0.0013440106995403767
0	4852	0.009859362617135048
0	4848	-0.0006878446438349783
0	4936	0.015303283929824829
0	5026	0.01581370271742344
0	5070	0.0078052012249827385
0	5154	0.015029702335596085
0	5198	0.007934218272566795
0	5258	0.010894169099628925
0	5314	0.01023067720234394
0	5348	0.006246708333492279
0	5412	0.011815238744020462
0	5400	-0.002225079108029604
0	5428	0.005213440861552954
0	5420	-0.0014954576035961509
0	5418	-0.00037532372516579926
0	5448	0.00565092358738184
0	5406	-0.007940209470689297
0	5448	0.007969538681209087
0	5436	-0.0022843799088150263
0	5438	0.0003819126286543906
0	5442	0.000765804317779839
0	5444	0.0003837004187516868
0	5476	0.006146832834929228
0	5458	-0.0034573718439787626
0	5460	0.00038371022674255073
0	5458	-0.0003828630724456161
0	5470	0.0022902803029865026
0	5496	0.004942276515066624
0	5472	-0.004541383124887943
0	5488	0.003014545189216733
0	5498	0.0018759145168587565
0	5498	0.0
0	5512	0.00260516838170588
0	5530	0.003337577451020479
0	5560	0.005545354913920164
0	5536	-0.004422930534929037
0	5548	0.0022062878124415874
0	5546	-0.0003669275902211666
0	5530	-0.002930259797722101
0	5542	0.0021948006469756365
0	5516	-0.004749784246087074
0	5542	0.0047467779368162155
0	5558	0.0029185719322413206
0	5544	-0.0025517332833260298
0	5598	0.009834990836679935
0	5706	0.019648509100079536
0	5690	-0.0029063429683446884
0	5622	-0.012330754660069942
0	5558	-0.011593222618103027
0	5534	-0.0043442584574222565
0	5436	-0.017728785052895546
0	5456	0.0036182506009936333
0	5452	-0.0007235977682285011
0	5456	0.0007237024838104844
0	5468	0.0021711334120482206
0	5448	-0.003618381218984723
0	5474	0.004704179707914591
0	5484	0.0018092561513185501
0	5730	0.04451092332601547
0	6730	0.18065759539604187
1	5416	-0.23562180995941162
0	1562	-0.6914244890213013
0	990	-0.10509297251701355
0	3602	0.49356895685195923
0	5988	0.4564061462879181
0	6702	0.13620582222938538
0	6880	0.033706165850162506
0	6914	0.006384576670825481
0	6812	-0.01899111270904541
0	6746	-0.012191368266940117
0	6634	-0.020536141470074654
0	6552	-0.014933345839381218
0	6486	-0.011946277692914009
0	6364	-0.021959561854600906
0	6318	-0.00823929812759161
0	6232	-0.015337970107793808
0	6174	-0.010311966761946678
0	6158	-0.0028365442994982004
0	6128	-0.005301727447658777
0	6088	-0.007045313250273466
0	6070	-0.003160112304612994
0	6054	-0.002798605477437377
0	6030	-0.004183322191238403
0	6004	-0.00451676407828927
0	6004	0.0
0	5934	-0.012084661051630974
0	5878	-0.009640767239034176
0	5792	-0.014771218411624432
0	5680	-0.019203072413802147
0	5524	-0.02675478160381317
0	5322	-0.03488452360033989
0	5180	-0.02453606203198433
0	4970	-0.035545025020837784
0	4844	-0.020858624950051308
0	4770	-0.012166916392743587
0	4726	-0.0072829993441700935
0	4744	0.0030122497119009495
0	4770	0.004403495695441961
0	4850	0.013715227134525776
0	4928	0.013523979112505913
0	4958	0.0052567641250789165
0	5058	0.017695773392915726
0	5104	0.008212428539991379
0	5212	0.01944124326109886
0	5270	0.010513341054320335
0	5328	0.010580337606370449
0	5354	0.004769125487655401
0	5374	0.003687043907120824
0	5406	0.0059278286062181
0	5386	-0.0037214839830994606
0	5422	0.006727966014295816
0	5456	0.006379944272339344
0	5410	-0.00866409670561552
0	5418	0.0015126876533031464
0	5416	-0.00037957384483888745
0	5434	0.003428919706493616
0	5458	0.004586454946547747
0	5434	-0.004598758649080992
0	5456	0.004225189797580242
0	5432	-0.004615917336195707
0	5454	0.004233754239976406
0	5478	0.004614733625203371
0	5460	-0.0034544526133686304
0	5496	0.006887315772473812
0	5474	-0.0041914875619113445
0	5492	0.003414134494960308
0	5520	0.005285279359668493
0	5490	-0.005635284353047609
0	5532	0.00785399042069912
0	5512	-0.0037241633981466293
0	5536	0.004452855326235294
0	5514	-0.004067244939506054
0	5532	0.0033184210769832134
0	5548	0.002941969782114029
0	5530	-0.0033029138576239347
0	5570	0.007328154984861612
0	5572	0.00036586704663932323
0	5576	0.0007307626656256616
0	5722	0.026640066877007484
0	5696	-0.00473502092063427
0	5630	-0.011997091583907604
0	5598	-0.005809450056403875
0	5492	-0.0192272812128067
0	5416	-0.013778765685856342
0	5428	0.0021756209898740053
0	5422	-0.001087731565348804
0	5464	0.0076146735809743404
0	5478	0.002538132481276989
0	5492	0.00253745773807168
0	5484	-0.0014496605144813657
0	5500	0.0028984106611460447
0	6024	0.0948965921998024
0	6696	0.1212996393442154
1	5024	-0.29957714676856995
0	840	-0.751778781414032
0	1302	0.08538162708282471
0	5310	0.7603389024734497
0	6524	0.2306084930896759
0	6842	0.06001358851790428
0	6890	0.008984613232314587
0	6856	-0.006309851072728634
0	6752	-0.019144393503665924
0	6708	-0.008038487285375595
0	6580	-0.023218410089612007
0	6488	-0.016584744676947594
0	6432	-0.01003728061914444
0	6338	-0.01676196977496147
0	6292	-0.008165487088263035
0	6220	-0.012726844288408756
0	6174	-0.008107251487672329
0	6138	-0.006327037699520588
0	6078	-0.010513773187994957
0	6084	0.0010484379017725587
0	6056	-0.004875896964222193
0	6034	-0.003816882148385048
0	6024	-0.001728887320496142
0	5992	-0.005513312295079231
0	5980	-0.0020612417720258236
0	5876	-0.01781289651989937
0	5800	-0.012988640926778316
0	5708	-0.015694838017225266
0	5542	-0.028285490348935127
0	5352	-0.032463833689689636
0	5128	-0.03856837749481201
0	4956	-0.029597338289022446
0	4812	-0.024207647889852524
0	4714	-0.016156865283846855
0	4712	-0.00033081547007896006
0	4730	0.0030073849484324455
0	4760	0.005071965511888266
0	4850	0.015400761738419533
0	4930	0.013848017901182175
0	5004	0.012945512309670448
0	5074	0.012368656694889069
0	5106	0.005704845767468214
0	5212	0.019053781405091286
0	5270	0.010502426885068417
0	5328	0.010570568032562733
0	5346	0.0032998460810631514
0	5364	0.0033175647258758545
0	5424	0.011113855987787247
0	5420	-0.0007442045025527477
0	5446	0.004857150372117758
0	5452	0.0011253517586737871
0	5476	0.004518469329923391
0	5476	0.0
0	5418	-0.010995956137776375
0	5446	0.005327718332409859
0	5458	0.0022910672705620527
0	5446	-0.002297178376466036
0	5470	0.004604758229106665
0	5464	-0.0011529444018378854
0	5440	-0.004614083096385002
0	5456	0.003074321895837784
0	5466	0.0019174228655174375
0	5486	0.0038223862648010254
0	5474	-0.0022836264688521624
0	5508	0.006439231336116791
0	5530	0.004145728889852762
0	5514	-0.0029999997932463884
0	5590	0.014183161780238152
0	5660	0.013003579340875149
0	5682	0.004068448673933744
0	5656	-0.004788154736161232
0	5588	-0.01247828546911478
0	5466	-0.022321701049804688
0	5494	0.005115089472383261
0	5454	-0.007297317031770945
0	5464	0.0018229325069114566
0	5464	0.0
0	5472	0.0014564167940989137
0	5518	0.008371957577764988
0	5518	0.0
0	5606	0.01599941775202751
0	6158	0.10026640444993973
0	6750	0.10708987712860107
1	4838	-0.343234658241272
0	648	-0.7547917366027832
0	3884	0.6002300381660461
0	5852	0.36862218379974365
0	6672	0.15320420265197754
0	6850	0.033009421080350876
0	6838	-0.002206450095400214
0	6762	-0.0138554647564888
0	6708	-0.009767156094312668
0	6628	-0.014362313784658909
0	6502	-0.022467100992798805
0	6432	-0.012405921705067158
0	6362	-0.012338570319116116
0	6276	-0.015085073187947273
0	6238	-0.00663593178614974
0	6174	-0.011134307831525803
0	6158	-0.0027753044851124287
0	6108	-0.008649022318422794
0	6096	-0.0020703694317489862
0	6124	0.004816790111362934
0	6068	-0.009597367607057095
0	6100	0.005466285161674023
0	6058	-0.0071482062339782715
0	6022	-0.006106455810368061
0	5990	-0.005410889629274607
0	5874	-0.019557373598217964
0	5788	-0.014470481313765049
0	5600	-0.03158531337976456
0	5386	-0.035954706370830536
0	5156	-0.03881070390343666
0	4916	-0.04086450859904289
0	4796	-0.02042321488261223
0	4696	-0.016628053039312363
0	4664	-0.005297136027365923
0	4736	0.011997200548648834
0	4814	0.0131382429972291
0	4848	0.0057931505143642426
0	4918	0.012063419446349144
0	4962	0.007663902826607227
0	5034	0.012669364921748638
0	5088	0.009591701440513134
0	5188	0.017912372946739197
0	5290	0.018407344818115234
0	5294	0.0007265417953021824
0	5346	0.009501535445451736
0	5390	0.008083677850663662
0	5376	-0.0025844883639365435
0	5428	0.009645944461226463
0	5418	-0.0018628217512741685
0	5452	0.006360371131449938
0	5438	-0.0026299969758838415
0	5418	-0.0037720189429819584
0	5456	0.007197696715593338
0	5418	-0.007225159090012312
0	5420	0.00038173282518982887
0	5430	0.001915610977448523
0	5412	-0.0034579031635075808
0	5448	0.006932498421519995
0	5452	0.0007710298523306847
0	5518	0.012716598808765411
0	5554	0.006920238025486469
0	5544	-0.0019144618418067694
0	5604	0.01143220067024231
0	5570	-0.006441101897507906
0	5634	0.012055455707013607
0	5570	-0.011987862177193165
0	5492	-0.014541568234562874
0	5452	-0.007427489385008812
0	5448	-0.0007403020281344652
0	5450	0.0003690445446409285
0	5450	0.0
0	5464	0.0025710086338222027
0	5512	0.008800019510090351
0	5492	-0.0036617072764784098
0	5524	0.005851660389453173
0	5580	0.010229306295514107
0	6174	0.1083783432841301
0	6522	0.06318771094083786
1	4894	-0.2936578691005707
0	1116	-0.6836276650428772
0	2772	0.30769991874694824
0	5280	0.4738333523273468
0	6308	0.19438771903514862
0	6626	0.05981041491031647
0	6672	0.008586788550019264
0	6652	-0.003704527160152793
0	6572	-0.014707144349813461
0	6516	-0.01022233534604311
0	6406	-0.01994994468986988
0	6334	-0.012983265332877636
0	6284	-0.008972151204943657
0	6174	-0.019652917981147766
0	6162	-0.0021359408274292946
0	6100	-0.010999278165400028
0	6058	-0.007427843753248453
0	6060	0.00035282495082356036
0	6016	-0.007739847060292959
0	6002	-0.002455135341733694
0	5984	-0.0031464865896850824
0	6022	0.006621901411563158
0	6020	-0.0003473669639788568
0	6016	-0.0006924488116055727
0	5980	-0.006212251726537943
0	5930	-0.008604963310062885
0	5862	-0.011673418805003166
0	5766	-0.016448307782411575
0	5618	-0.02533089928328991
0	5450	-0.028845492750406265
0	5218	-0.04008015990257263
0	5046	-0.02965926192700863
0	4890	-0.026306025683879852
0	4838	-0.008665511384606361
0	4834	-0.0006682184175588191
0	4828	-0.0010106228291988373
0	4876	0.008167432621121407
0	4904	0.004813367500901222
0	4978	0.012849749997258186
0	5030	0.00911363959312439
0	5078	0.008486262522637844
0	5162	0.014968104660511017
0	5202	0.007177634630352259
0	5262	0.010836584493517876
0	5294	0.0058114193379879
0	5374	0.014605291187763214
0	5392	0.003300773911178112
0	5384	-0.0014730070251971483
0	5434	0.009244650602340698
0	5444	0.0018555859569460154
0	5462	0.0033516224939376116
0	5460	-0.000373612972907722
0	5458	-0.00037492503179237247
0	5502	0.00827741902321577
0	5462	-0.007549258880317211
0	5472	0.0018934851977974176
0	5498	0.004937333986163139
0	5480	-0.003426048206165433
0	5522	0.008008643984794617
0	5530	0.00152638740837574
0	5578	0.009153667837381363
0	5624	0.008752236142754555
0	5590	-0.006445415783673525
0	5650	0.011324173770844936
0	5532	-0.022157682105898857
0	5516	-0.002991362474858761
0	5422	-0.017499225214123726
0	5396	-0.00482386676594615
0	5420	0.0044392929412424564
0	5422	0.00036893560900352895
0	5472	0.009201211854815483
0	5460	-0.002202966483309865
0	5486	0.004764406476169825
0	5504	0.0032927230931818485
0	5558	0.009863614104688168
0	6208	0.11853814870119095
0	6274	0.011975468136370182
1	4876	-0.2523162066936493
0	1470	-0.6166119575500488
0	2636	0.2162623256444931
0	4740	0.3971309959888458
0	6084	0.2548382580280304
0	6504	0.07932410389184952
0	6638	0.025142598897218704
0	6598	-0.007452304940670729
0	6540	-0.010730142705142498
0	6466	-0.013600608333945274
0	6402	-0.01169334165751934
0	6340	-0.011264671571552753
0	6230	-0.019887184724211693
0	6220	-0.00180033128708601
0	6132	-0.015782112255692482
0	6088	-0.007867163978517056
0	6076	-0.002139240736141801
0	6020	-0.009957916103303432
0	6048	0.00496459798887372
0	6018	-0.005302539560943842
0	6020	0.0003522656625136733
0	6050	0.005264697130769491
0	6030	-0.003496910911053419
0	6006	-0.004181475844234228
0	5984	-0.0038211692590266466
0	5932	-0.009004537016153336
0	5854	-0.013472123071551323
0	5732	-0.021029407158493996
0	5582	-0.02583000250160694
0	5340	-0.041822683066129684
0	5138	-0.035098690539598465
0	4982	-0.02706485241651535
0	4842	-0.02380547486245632
0	4814	-0.0047022998332977295
0	4806	-0.0013429578393697739
0	4854	0.00811578519642353
0	4936	0.013994607143104076
0	4966	0.005170037038624287
0	5010	0.007654481567442417
0	5078	0.011935547925531864
0	5138	0.010617589578032494
0	5212	0.013193395920097828
0	5208	-0.000717969611287117
0	5290	0.014808928593993187
0	5354	0.0116232605651021
0	5358	0.0007298914715647697
0	5408	0.009164335206151009
0	5412	0.0007361511816270649
0	5462	0.00923633947968483
0	5442	-0.0037079150788486004
0	5452	0.0018605805234983563
0	5490	0.0070952000096440315
0	5472	-0.003372638951987028
0	5470	-0.0003760482359211892
0	5424	-0.008678263053297997
0	5450	0.004922440275549889
0	5462	0.002278827130794525
0	5442	-0.0038074932526797056
0	5484	0.00801047682762146
0	5506	0.004198580048978329
0	5540	0.006481870077550411
0	5582	0.007986613549292088
0	5564	-0.0034098660107702017
0	5662	0.01848057098686695
0	5604	-0.010879487730562687
0	5534	-0.013065226376056671
0	5482	-0.009664708748459816
0	5448	-0.006297928746789694
0	5466	0.003324304474517703
0	5454	-0.0022099989000707865
0	5478	0.0044098193757236
0	5458	-0.0036672125570476055
0	5458	0.0
0	5522	0.011699612252414227
0	5520	-0.00036509675555862486
0	5726	0.03756701946258545
0	6568	0.1532079130411148
1	5474	-0.1976703554391861
0	2412	-0.5530536770820618
0	1442	-0.1784772425889969
0	3732	0.43195050954818726
0	5846	0.40311199426651
0	6438	0.11263174563646317
0	6692	0.04803086072206497
0	6688	-0.0007506098481826484
0	6616	-0.013404992409050465
0	6568	-0.008872458711266518
0	6454	-0.02092946320772171
0	6400	-0.009852935560047626
0	6326	-0.013427365571260452
0	6248	-0.014083320274949074
0	6204	-0.007910728454589844
0	6138	-0.011822025291621685
0	6114	-0.004284235183149576
0	6054	-0.010681858286261559
0	6026	-0.0049715908244252205
0	6014	-0.0021244955714792013
0	5994	-0.003529743989929557
0	6024	0.005277663469314575
0	6034	0.0017534836661070585
0	6068	0.005941701587289572
0	6022	-0.00801123958081007
0	5994	-0.0048604924231767654
0	5954	-0.006922091823071241
0	5854	-0.017262212932109833
0	5774	-0.013783280737698078
0	5556	-0.03754908964037895
0	5356	-0.034650035202503204
0	5096	-0.045075759291648865
0	4928	-0.028681015595793724
0	4844	-0.014061558060348034
0	4784	-0.0099820327013731
0	4770	-0.0023429393768310547
0	4818	0.008108382113277912
0	4822	0.0006829046178609133
0	4922	0.017255857586860657
0	4968	0.008015799336135387
0	5024	0.009849905967712402
0	5098	0.013125997968018055
0	5138	0.0071501778438687325
0	5224	0.015482477843761444
0	5262	0.006883393041789532
0	5312	0.00910890568047762
0	5396	0.015380107797682285
0	5402	0.0011034144554287195
0	5432	0.005539211910218
0	5448	0.0029650861397385597
0	5458	0.0018596808658912778
0	5466	0.0014927043812349439
0	5454	-0.002246854593977332
0	5464	0.0018791811307892203
0	5434	-0.005658953450620174
0	5470	0.006815944332629442
0	5484	0.0026594398077577353
0	5468	-0.0030484318267554045
0	5508	0.00763980858027935
0	5490	-0.0034437456633895636
0	5520	0.005741993431001902
0	5482	-0.007265589199960232
0	5476	-0.001144382986240089
0	5494	0.003421229310333729
0	5476	-0.0034071982372552156
0	5536	0.011307952925562859
0	5526	-0.001875633024610579
0	5518	-0.0014938936801627278
0	5544	0.004834210965782404
0	5546	0.00037043436896055937
0	5562	0.002952937502413988
0	5644	0.015083881095051765
0	5742	0.017966926097869873
0	5684	-0.010594381019473076
0	5642	-0.007650366518646479
0	5578	-0.011630864813923836
0	5506	-0.013063672930002213
0	5456	-0.009065964259207249
0	5436	-0.0036252024583518505
0	5458	0.003987626172602177
0	5492	0.00616232305765152
0	5460	-0.005798642057925463
0	5474	0.0025369978975504637
0	5470	-0.000724768964573741
0	5496	0.004710827488452196
0	5538	0.007606950122863054
0	5708	0.030777402222156525
0	6562	0.1544024646282196
1	5014	-0.27804386615753174
0	1756	-0.5869212746620178
0	2238	0.08882282674312592
0	5046	0.5281041264533997
0	6264	0.22969862818717957
0	6648	0.07206034660339355
0	6714	0.01229660864919424
0	6718	0.000739562907256186
0	6682	-0.006607929710298777
0	6592	-0.01640380173921585
0	6528	-0.011589303612709045
0	6430	-0.01764134131371975
0	6350	-0.014325108379125595
0	6272	-0.013901595957577229
0	6220	-0.009233282878994942
0	6174	-0.008144860155880451
0	6118	-0.009886888787150383
0	6126	0.0014084673020988703
0	6074	-0.00912568811327219
0	6068	-0.001049477024935186
0	6036	-0.005577309988439083
0	6038	0.00034737098030745983
0	6032	-0.0010386253707110882
0	6026	-0.0010353991528972983
0	6030	0.0006880260189063847
0	5962	-0.011659274809062481
0	5900	-0.010600706562399864
0	5820	-0.013646909035742283
0	5696	-0.02111884579062462
0	5546	-0.025548730045557022
0	5280	-0.045569274574518204
0	5092	-0.032158005982637405
0	4918	-0.02920769900083542
0	4796	-0.02017640694975853
0	4740	-0.009274082258343697
0	4720	-0.0033402738627046347
0	4780	0.01012954581528902
0	4830	0.008534170687198639
0	4904	0.012767719104886055
0	4958	0.009413241408765316
0	5006	0.00844753161072731
0	5084	0.013850907795131207
0	5092	0.0014320150949060917
0	5166	0.01334631908684969
0	5228	0.011256899684667587
0	5272	0.008037019520998001
0	5328	0.010285420343279839
0	5316	-0.0022147304844111204
0	5386	0.012983961962163448
0	5404	0.0033529959619045258
0	5438	0.006359657272696495
0	5448	0.001877487637102604
0	5444	-0.0007537783239968121
0	5476	0.0060525815933942795
0	5470	-0.0011388080893084407
0	5450	-0.003809523768723011
0	5466	0.003057558787986636
0	5470	0.0007665086886845529
0	5498	0.005377583205699921
0	5486	-0.002307603368535638
0	5490	0.0007694971282035112
0	5510	0.0038423114456236362
0	5464	-0.008813723921775818
0	5504	0.007637474220246077
0	5494	-0.001900803530588746
0	5510	0.0030268251430243254
0	5516	0.0011294330470263958
0	5512	-0.0007494941237382591
0	5536	0.00447789067402482
0	5526	-0.001858482719399035
0	5530	0.000740786490496248
0	5534	0.0007383979391306639
0	5518	-0.002945435931906104
0	5552	0.006242732051759958
0	5542	-0.0018317701760679483
0	5566	0.004387835972011089
0	5618	0.00948997400701046
0	5696	0.01420989353209734
0	5692	-0.0007270348141901195
0	5608	-0.015239477157592773
0	5598	-0.0018119881860911846
0	5514	-0.015206005424261093
0	5440	-0.0133904330432415
0	5454	0.002533386228606105
0	5428	-0.004705484956502914
0	5450	0.0039825732819736
0	5456	0.001086156233213842
0	5466	0.0018103697802871466
0	5486	0.0036208268720656633
0	5478	-0.0014484355924651027
0	5530	0.009415286593139172
0	5554	0.004344468005001545
0	6508	0.17264676094055176
1	5468	-0.18703241646289825
0	2684	-0.5007794499397278
0	900	-0.3264011740684509
0	3272	0.4465361535549164
0	5418	0.4097609221935272
0	6446	0.1964055895805359
0	6738	0.0554669126868248
0	6806	0.012818579562008381
0	6780	-0.004862236324697733
0	6670	-0.02041245438158512
