1	5644	-0.15347111225128174
0	3810	-0.3301173448562622
0	4422	0.1113240048289299
0	5092	0.12272410839796066
0	5606	0.09443321824073792
0	5774	0.03085928224027157
0	5796	0.00403595669195056
0	5788	-0.0014655593549832702
0	5770	-0.00329268304631114
0	5776	0.0010961040388792753
0	5810	0.00620128633454442
0	5820	0.001820542966015637
0	5802	-0.0032706656493246555
0	5846	0.007980170659720898
0	5838	-0.0014480511890724301
0	5876	0.0068655675277113914
0	5910	0.006132092326879501
0	5934	0.004319913685321808
0	5918	-0.0028744235169142485
0	5906	-0.002152595203369856
0	5912	0.001074383151717484
0	5874	-0.0067874109372496605
0	5728	-0.026003632694482803
0	5714	-0.0024870613124221563
0	5462	-0.04464707523584366
0	5300	-0.028677981346845627
0	5248	-0.009206472896039486
0	5102	-0.025869095697999
0	5160	0.010301587171852589
0	5168	0.0014274328714236617
0	5182	0.0025178948417305946
0	5250	0.012263743206858635
0	5198	-0.009297668933868408
0	5296	0.01744186133146286
0	5254	-0.007466047070920467
0	5340	0.015319573692977428
0	5382	0.007500982377678156
0	5344	-0.006803370546549559
0	5406	0.011129727587103844
0	5342	-0.011513829231262207
0	5450	0.019480284303426743
0	5400	-0.009038213640451431
0	5428	0.005074240732938051
0	5412	-0.0029061317909508944
0	5394	-0.0032780119217932224
0	5476	0.014973522163927555
0	5402	-0.013545670546591282
0	5486	0.015423974953591824
0	5460	-0.004787214566022158
0	5456	-0.0007385706412605941
0	5578	0.02258896641433239
0	5508	-0.012987655587494373
0	5648	0.026034241542220116
0	5572	-0.014139886014163494
0	5676	0.019366372376680374
0	5736	0.01115808542817831
0	5568	-0.03115842677652836
0	5502	-0.012216641567647457
0	5268	-0.04320691525936127
0	5198	-0.012916559353470802
0	5280	0.015128035098314285
0	5238	-0.0077438391745090485
0	5366	0.023602010682225227
0	5420	0.00994682777673006
0	5730	0.05705871433019638
0	6636	0.1662731021642685
0	6160	-0.08667046576738358
1	4256	-0.345052570104599
0	4126	-0.023715125396847725
0	4760	0.11656410992145538
0	5548	0.1453963965177536
0	5710	0.029873132705688477
0	5738	0.005153437610715628
0	5806	0.012491732835769653
0	5728	-0.014294266700744629
0	5820	0.01682557538151741
0	5752	-0.012410268187522888
0	5758	0.00109269714448601
0	5828	0.012727118097245693
0	5722	-0.019229605793952942
0	5804	0.014851843006908894
0	5742	-0.011214141733944416
0	5792	0.009030922316014767
0	5874	0.014797882176935673
0	5804	-0.012609432451426983
0	5908	0.01871962659060955
0	5834	-0.013306002132594585
0	5810	-0.00430859113112092
0	5756	-0.009676494635641575
0	5566	-0.03394797071814537
0	5474	-0.01640201546251774
0	5232	-0.04309475049376488
0	5152	-0.014246704988181591
0	5064	-0.015691308304667473
0	5002	-0.01107868179678917
0	5098	0.01722879521548748
0	5024	-0.013403855264186859
0	5134	0.02006225474178791
0	5180	0.008345125243067741
0	5152	-0.005047470331192017
0	5248	0.017264945432543755
0	5182	-0.011891035363078117
0	5266	0.015182186849415302
0	5312	0.00833776406943798
0	5302	-0.00181798345874995
0	5384	0.014946049079298973
0	5296	-0.016082262620329857
0	5384	0.01612706296145916
0	5426	0.0077146319672465324
0	5382	-0.008101937361061573
0	5434	0.00959504023194313
0	5396	-0.007027753628790379
0	5368	-0.005189413670450449
0	5464	0.01783900335431099
0	5406	-0.01080517191439867
0	5550	0.026893099769949913
0	5484	-0.012353535741567612
0	5596	0.021009454503655434
0	5604	0.001502686063759029
0	5616	0.0022561762016266584
0	5708	0.017291933298110962
0	5516	-0.036034680902957916
0	5426	-0.01686130091547966
0	5270	-0.02917633019387722
0	5256	-0.002615030389279127
0	5350	0.01753033697605133
0	5312	-0.007075647357851267
0	5404	0.017099948599934578
0	5416	0.0022267031017690897
0	5774	0.06633314490318298
0	6848	0.19823788106441498
0	6242	-0.1107645034790039
1	4646	-0.2898445427417755
0	4172	-0.08640594780445099
0	4668	0.09104704111814499
0	5338	0.1234658882021904
0	5630	0.05382421985268593
0	5778	0.02722489833831787
0	5746	-0.00587227800861001
0	5752	0.001098901149816811
0	5772	0.0036547479685395956
0	5690	-0.014953679405152798
0	5774	0.015291077084839344
0	5716	-0.010532177984714508
0	5778	0.011241387575864792
0	5786	0.0014472478069365025
0	5734	-0.009393742308020592
0	5814	0.014430188573896885
0	5772	-0.0075659314170479774
0	5832	0.010797581635415554
0	5874	0.007548526395112276
0	5758	-0.020827598869800568
0	5830	0.01290877815335989
0	5674	-0.027901651337742805
0	5642	-0.005709663964807987
0	5474	-0.029907075688242912
0	5192	-0.050164248794317245
0	5206	0.0024921970907598734
0	5014	-0.03421890735626221
0	4996	-0.003215702250599861
0	5096	0.01794816553592682
0	5006	-0.01632445678114891
0	5182	0.03216374292969704
0	5138	-0.008014766499400139
0	5226	0.01593606173992157
0	5282	0.010107086971402168
0	5266	-0.00288871256634593
0	5388	0.022074788808822632
0	5316	-0.013058461248874664
0	5414	0.017820341512560844
0	5408	-0.001093281083740294
0	5416	0.00146093824878335
0	5448	0.005853516049683094
0	5372	-0.013929789885878563
0	5466	0.017265236005187035
0	5424	-0.00772901764139533
0	5450	0.004795278422534466
0	5440	-0.0018475637771189213
0	5494	0.009999875910580158
0	5588	0.01743711531162262
0	5546	-0.0078028240241110325
0	5622	0.014148132875561714
0	5652	0.005589506588876247
0	5614	-0.007087877485901117
0	5680	0.012315117754042149
0	5506	-0.032459456473588943
0	5418	-0.01641301065683365
0	5280	-0.025702472776174545
0	5312	0.0059572565369307995
0	5366	0.010034315288066864
0	5302	-0.011865328066051006
0	5508	0.03814296796917915
0	5478	-0.005537643563002348
0	6244	0.14113745093345642
0	6852	0.11126971244812012
1	5534	-0.2388373464345932
1	4110	-0.2576536238193512
0	4720	0.11114620417356491
0	5116	0.07244785875082016
0	5656	0.09891317039728165
0	5680	0.004389655310660601
0	5736	0.010225570760667324
0	5828	0.016766496002674103
0	5724	-0.01890977844595909
0	5820	0.017418021336197853
0	5788	-0.005793602671474218
0	5790	0.00036130647640675306
0	5834	0.007932501845061779
0	5760	-0.013309512287378311
0	5886	0.022626060992479324
0	5798	-0.015774190425872803
0	5894	0.017182335257530212
0	5916	0.003931238781660795
0	5908	-0.0014272970147430897
0	5936	0.004986820742487907
0	5830	-0.01885002851486206
0	5848	0.003194812685251236
0	5670	-0.03151297569274902
0	5618	-0.009184898808598518
0	5444	-0.03067881427705288
0	5308	-0.02396785467863083
0	5252	-0.009868768975138664
0	5086	-0.029297910630702972
0	5182	0.016982533037662506
0	5160	-0.00391635624691844
0	5152	-0.0014385728863999248
0	5248	0.017302492633461952
0	5182	-0.011814688332378864
0	5314	0.0235644169151783
0	5338	0.004279396962374449
0	5346	0.0014291669940575957
0	5416	0.012530132196843624
0	5382	-0.006097706966102123
0	5472	0.016184139996767044
0	5480	0.0014407665003091097
0	5480	0.0
0	5530	0.009039956144988537
0	5428	-0.01847045309841633
0	5516	0.015974441543221474
0	5520	0.0007271845825016499
0	5538	0.003279604483395815
0	5658	0.021898610517382622
0	5602	-0.010234043002128601
0	5670	0.0124508673325181
0	5706	0.00660122511908412
0	5744	0.0069777690805494785
0	5756	0.0022046666126698256
0	5566	-0.034926898777484894
0	5538	-0.005150403827428818
0	5356	-0.03349405527114868
0	5418	0.01141622569411993
0	5476	0.010672490112483501
0	5406	-0.012862917967140675
0	5558	0.027876269072294235
0	5684	0.02305496484041214
0	6504	0.14956225454807281
0	6618	0.020623281598091125
1	5096	-0.2730828523635864
1	4150	-0.16982215642929077
0	4940	0.14281237125396729
0	5384	0.08045712858438492
0	5782	0.07210493087768555
0	5862	0.014461491256952286
0	5786	-0.01369879487901926
0	5888	0.01835060492157936
0	5828	-0.01076812669634819
0	5872	0.00788022018969059
0	5870	-0.0003574620059225708
0	5802	-0.01212178822606802
0	5906	0.01850775256752968
0	5816	-0.015979735180735588
0	5902	0.015244442969560623
0	5908	0.0010620346292853355
0	5924	0.0028269882313907146
0	6016	0.016230901703238487
0	5902	-0.020075606182217598
0	5942	0.007037545554339886
0	5848	-0.016520211473107338
0	5800	-0.008421938866376877
0	5730	-0.012263203039765358
0	5492	-0.04160402715206146
0	5406	-0.015026908367872238
0	5206	-0.0349605530500412
0	5180	-0.004550174344331026
0	5182	0.0003507869259919971
0	5096	-0.015128238126635551
0	5222	0.022349143400788307
0	5200	-0.003934707958251238
0	5242	0.0075070601888000965
0	5304	0.011010217480361462
0	5236	-0.012049758806824684
0	5356	0.02128288522362709
0	5324	-0.00568976579234004
0	5318	-0.0010702436557039618
0	5388	0.012521017342805862
0	5318	-0.01255845744162798
0	5424	0.019075270742177963
0	5396	-0.005052327644079924
0	5368	-0.00506677245721221
0	5460	0.01669166423380375
0	5370	-0.016372963786125183
0	5486	0.02116016112267971
0	5474	-0.002194533124566078
0	5524	0.009168144315481186
0	5576	0.00955823715776205
0	5538	-0.00700374785810709
0	5662	0.022905558347702026
0	5570	-0.01702379621565342
0	5568	-0.0003707182186190039
0	5394	-0.03229878097772598
0	5276	-0.02194940485060215
0	5306	0.005587840918451548
0	5240	-0.012300887145102024
0	5326	0.01602504402399063
0	5362	0.006702079903334379
0	5472	0.020455729216337204
0	5934	0.08571428805589676
0	6552	0.11415412276983261
0	5740	-0.1487506479024887
1	4044	-0.3097490668296814
0	4570	0.09680862724781036
0	5206	0.11753399670124054
0	5698	0.09100662171840668
0	5698	0.0
0	5792	0.017306983470916748
0	5800	0.0014692918630316854
0	5792	-0.001464968896470964
0	5854	0.01132806297391653
0	5768	-0.015669412910938263
0	5820	0.009451566264033318
0	5760	-0.010881919413805008
0	5860	0.01809387095272541
0	5850	-0.0018053147941827774
0	5854	0.0007204957073554397
0	5922	0.012224205769598484
0	5852	-0.012557705864310265
0	5952	0.017905957996845245
0	5870	-0.014657515101134777
0	5878	0.0014274498680606484
0	5878	0.0
0	5734	-0.025573328137397766
0	5662	-0.012752089649438858
0	5388	-0.04842700436711311
0	5336	-0.00918252021074295
0	5214	-0.02154233679175377
0	5126	-0.015552282333374023
0	5178	0.009208755567669868
0	5114	-0.011384658515453339
0	5166	0.00932958535850048
0	5280	0.02052377723157406
0	5222	-0.01036504004150629
0	5330	0.019225748255848885
0	5268	-0.011028888635337353
0	5368	0.017834002152085304
0	5404	0.006432860158383846
0	5340	-0.011462686583399773
0	5440	0.017959769815206528
0	5398	-0.007559032645076513
0	5452	0.009745415300130844
0	5462	0.0018081439193338156
0	5404	-0.010509911924600601
0	5496	0.016706818714737892
0	5418	-0.014195755124092102
0	5532	0.02080215886235237
0	5574	0.007678993511945009
0	5576	0.0003664435353130102
0	5668	0.01688486523926258
0	5640	-0.005147815681993961
0	5758	0.021724989637732506
0	5702	-0.01031776238232851
0	5530	-0.03172456473112106
0	5514	-0.0029548280872404575
0	5274	-0.04436283931136131
0	5336	0.011468455195426941
0	5306	-0.005549252964556217
0	5336	0.005546106491237879
0	5482	0.026956167072057724
0	5554	0.013268628157675266
0	6350	0.1462966352701187
0	6450	0.018246620893478394
1	5378	-0.19422166049480438
0	3838	-0.27874985337257385
0	4494	0.11981881409883499
0	5250	0.13873766362667084
0	5768	0.09512965381145477
0	5756	-0.002198876114562154
0	5830	0.013525368645787239
0	5844	0.002552788006141782
0	5836	-0.0014547922182828188
0	5852	0.002902827924117446
0	5782	-0.01266998890787363
0	5890	0.019503502175211906
0	5790	-0.018016070127487183
0	5892	0.018335429951548576
0	5920	0.005022421479225159
0	5864	-0.01002410613000393
0	5964	0.017869481816887856
0	5934	-0.005351409316062927
0	5950	0.0028491043485701084
0	5986	0.0064031872898340225
0	5828	-0.028055638074874878
0	5878	0.008862733840942383
0	5698	-0.03183737024664879
0	5606	-0.016231857240200043
0	5440	-0.02924148365855217
0	5224	-0.038019243627786636
0	5198	-0.004579399712383747
0	5036	-0.028580838814377785
0	5102	0.011679624207317829
0	5118	0.002852422883734107
0	5138	0.003593976376578212
0	5256	0.021234989166259766
0	5172	-0.014988936483860016
0	5266	0.016705963760614395
0	5312	0.00817448366433382
0	5260	-0.009265748783946037
0	5382	0.021803105250000954
0	5320	-0.011109916493296623
0	5394	0.013301855884492397
0	5432	0.0068488214164972305
0	5354	-0.014093669131398201
0	5456	0.01847781427204609
0	5358	-0.017799843102693558
0	5450	0.016753876581788063
0	5428	-0.004017139784991741
0	5404	-0.004395497031509876
0	5508	0.019100794568657875
0	5468	-0.007367025129497051
0	5562	0.01736217923462391
0	5602	0.0074058533646166325
0	5558	-0.008165789768099785
0	5670	0.02082042396068573
0	5600	-0.013029558584094048
0	5594	-0.0011174988467246294
0	5456	-0.025704387575387955
0	5288	-0.03128919005393982
0	5312	0.004468108993023634
0	5246	-0.012278612703084946
0	5358	0.02080933377146721
0	5364	0.0011130210477858782
0	5520	0.02889459766447544
0	5956	0.08056668192148209
0	6646	0.12695492804050446
1	5716	-0.1695801168680191
0	3790	-0.35023701190948486
0	4430	0.11746568232774734
0	5166	0.13577498495578766
0	5790	0.11526668071746826
0	5762	-0.0051572974771261215
0	5860	0.0180098507553339
0	5844	-0.0029326945077627897
0	5852	0.0014619703870266676
0	5878	0.004739969968795776
0	5864	-0.0025442517362535
0	5914	0.009063882753252983
0	5834	-0.014459747821092606
0	5938	0.018749099224805832
0	5918	-0.003596303053200245
0	5886	-0.0057386066764593124
0	5980	0.016824569553136826
0	5914	-0.011786416172981262
0	6036	0.02174093946814537
0	5934	-0.01813741773366928
0	5916	-0.00319439684972167
0	5902	-0.0024798072408884764
0	5756	-0.0257929265499115
0	5716	-0.007047133520245552
0	5440	-0.04851013049483299
0	5320	-0.021067416295409203
0	5224	-0.016857681795954704
0	5108	-0.020386403426527977
0	5158	0.008808502927422523
0	5096	-0.010973969474434853
0	5238	0.02536589838564396
0	5162	-0.013614866882562637
0	5232	0.012438105419278145
0	5324	0.01626993902027607
0	5274	-0.008834130130708218
0	5408	0.02374763786792755
0	5346	-0.011010738089680672
0	5424	0.013894496485590935
0	5484	0.01071479544043541
0	5434	-0.008948598988354206
0	5492	0.010407944209873676
0	5370	-0.021941393613815308
0	5460	0.016239233314990997
0	5396	-0.01157393492758274
0	5456	0.010886130854487419
0	5480	0.00436665304005146
0	5402	-0.014226654544472694
0	5478	0.013910751789808273
0	5410	-0.012479659169912338
0	5468	0.010685334913432598
0	5510	0.007759863045066595
0	5536	0.004815766122192144
0	5630	0.017450278624892235
0	5526	-0.019321756437420845
0	5676	0.02790074609220028
0	5646	-0.0055719963274896145
0	5566	-0.014828728511929512
0	5520	-0.008508538827300072
0	5270	-0.0461248904466629
0	5284	0.002581216162070632
0	5296	0.0022099176421761513
0	5304	0.0014727540547028184
0	5410	0.01949700154364109
0	5398	-0.002204801654443145
0	5748	0.06427758187055588
0	6546	0.14612887799739838
0	5926	-0.11275050789117813
1	4048	-0.3403283655643463
0	4338	0.05299384519457817
0	4948	0.11225341260433197
0	5636	0.12698569893836975
0	5732	0.01770324818789959
0	5804	0.01324795838445425
0	5820	0.002937792334705591
0	5806	-0.0025639147497713566
0	5868	0.011330271139740944
0	5780	-0.016043756157159805
0	5880	0.018189754337072372
0	5846	-0.006169479340314865
0	5860	0.002533692168071866
0	5902	0.007583143655210733
0	5832	-0.012608826160430908
0	5946	0.020497944205999374
0	5882	-0.011485863476991653
0	5984	0.018266694620251656
0	5968	-0.002860104897990823
0	5918	-0.00892071332782507
0	5944	0.004629080183804035
0	5776	-0.029835904017090797
0	5690	-0.015227528288960457
0	5530	-0.028262557461857796
0	5274	-0.04515787586569786
0	5262	-0.002117148833349347
0	5024	-0.04202669858932495
0	5080	0.00991045217961073
0	5096	0.0028427597135305405
0	5066	-0.005376344081014395
0	5226	0.028821904212236404
0	5166	-0.010732300579547882
0	5260	0.01673133671283722
0	5260	0.0
0	5246	-0.002492847852408886
0	5356	0.019643325358629227
0	5276	-0.014324254356324673
0	5394	0.02119709737598896
0	5402	0.0014406453119590878
0	5314	-0.015891551971435547
0	5422	0.0195581316947937
0	5376	-0.008353409357368946
0	5382	0.0010926838731393218
0	5432	0.009132198058068752
0	5354	-0.014287109486758709
0	5474	0.022044505923986435
0	5444	-0.005527101457118988
0	5424	-0.0036946721374988556
0	5514	0.016683556139469147
0	5464	-0.009294716641306877
0	5528	0.011930801905691624
0	5552	0.004485645797103643
0	5618	0.012352765537798405
0	5636	0.0033704498782753944
0	5586	-0.00935616996139288
0	5750	0.030628632754087448
0	5698	-0.009682103991508484
0	5714	0.0029666987247765064
0	5538	-0.0325063094496727
0	5460	-0.014367110095918179
0	5346	-0.02094740979373455
0	5300	-0.008446255698800087
0	5410	0.020181018859148026
0	5342	-0.012464105151593685
0	5488	0.02674776501953602
0	5586	0.017927484586834908
0	6250	0.12129773944616318
0	6698	0.08135691285133362
1	5706	-0.1787365823984146
1	3796	-0.34351280331611633
0	4696	0.16335123777389526
0	5434	0.13453896343708038
0	5754	0.05831611901521683
0	5862	0.01963731460273266
0	5820	-0.007616882678121328
0	5914	0.016999421641230583
0	5888	-0.004689529072493315
0	5864	-0.004317271523177624
0	5894	0.0053823888301849365
0	5776	-0.021122727543115616
0	5892	0.020726129412651062
0	5854	-0.006774907000362873
0	5886	0.005694963503628969
0	5948	0.011016477830708027
0	5924	-0.004256576765328646
0	6016	0.016284339129924774
0	5922	-0.016612274572253227
0	6002	0.014119475148618221
0	5890	-0.01973382942378521
0	5846	-0.00773658137768507
0	5800	-0.00806998647749424
0	5506	-0.051441170275211334
0	5410	-0.016776960343122482
0	5256	-0.02691303938627243
0	5156	-0.0174847599118948
0	5152	-0.0007007462554611266
0	5054	-0.017211904749274254
0	5144	0.01591830886900425
0	5132	-0.002142066601663828
0	5242	0.019702905789017677
0	5204	-0.006748197600245476
0	5250	0.00814437959343195
0	5338	0.015597490593791008
0	5380	0.007462597917765379
0	5308	-0.01282965112477541
0	5426	0.021090511232614517
0	5328	-0.017566921189427376
0	5410	0.014748201705515385
0	5422	0.0021641638595610857
0	5386	-0.006510965991765261
0	5450	0.011602330021560192
0	5358	-0.016723016276955605
0	5418	0.010939190164208412
0	5480	0.011336072348058224
0	5416	-0.011735224165022373
0	5494	0.014346850104629993
0	5372	-0.02251199260354042
0	5422	0.00925754476338625
0	5494	0.013378755189478397
0	5480	-0.0026078210212290287
0	5534	0.010081648826599121
0	5350	-0.03440924733877182
0	5610	0.048669084906578064
0	5650	0.007478219456970692
0	5380	-0.05035434663295746
0	5758	0.07039805501699448
0	5512	-0.04564289748668671
0	5604	0.017021486535668373
0	5610	0.0011069566244259477
0	5426	-0.03384717181324959
0	5192	-0.04299626126885414
0	5254	0.01139301061630249
0	5220	-0.006247626151889563
0	5422	0.03714510053396225
0	5342	-0.014707144349813461
0	5568	0.0415390282869339
0	6406	0.15389135479927063
0	6518	0.020432984456419945
1	5020	-0.2714620530605316
1	3736	-0.23324815928936005
0	4518	0.1434897482395172
0	5192	0.12438178807497025
0	5594	0.07426200062036514
0	5690	0.017715010792016983
0	5776	0.015849223360419273
0	5780	0.0007355465204454958
0	5774	-0.0011013890616595745
0	5760	-0.002563601592555642
0	5724	-0.006578546483069658
0	5910	0.0339416041970253
0	5920	0.0018200569320470095
0	5918	-0.0003631609433796257
0	5826	-0.016648169606924057
0	5918	0.016626505181193352
0	5954	0.006495537236332893
0	5844	-0.01977919228374958
0	5884	0.007188728079199791
0	6142	0.046264197677373886
0	6134	-0.0014299502363428473
0	5904	-0.04098311811685562
0	5880	-0.004264392424374819
0	5616	-0.04671794921159744
0	5466	-0.026487726718187332
0	5346	-0.021159542724490166
0	5238	-0.01905209943652153
0	5240	0.00035303254844620824
0	5220	-0.003537151962518692
0	5284	0.01139858178794384
0	5460	0.03157743439078331
0	5402	-0.010378888808190823
0	5500	0.01736418716609478
0	5402	-0.01726405881345272
0	5438	0.006334088277071714
0	5438	0.0
0	5396	-0.007407494820654392
0	5330	-0.01166641153395176
0	5248	-0.014533166773617268
0	5218	-0.0053335861302912235
0	5116	-0.018192628398537636
0	4936	-0.03222110867500305
0	4902	-0.006121787708252668
0	4978	0.013768116012215614
0	4952	-0.004737033974379301
0	4984	0.00586130702868104
0	4942	-0.007737086620181799
0	5040	0.018166091293096542
0	5076	0.006706574931740761
0	5168	0.01722545363008976
0	5234	0.012432968243956566
0	5264	0.005683468654751778
0	5344	0.015217418782413006
0	5470	0.024049166589975357
0	5440	-0.005731315817683935
0	5590	0.028661325573921204
0	5736	0.02785373665392399
0	5678	-0.011030251160264015
0	5614	-0.012137610465288162
0	5566	-0.009080590680241585
0	5380	-0.035124827176332474
0	5152	-0.04307793080806732
0	5370	0.041253503412008286
0	5338	-0.006060529500246048
0	5272	-0.012504895217716694
0	5444	0.03262271359562874
0	5626	0.03451807424426079
0	6634	0.19089944660663605
0	5980	-0.12284611910581589
1	4224	-0.3283388614654541
0	4174	-0.009407337754964828
0	4768	0.11242334544658661
0	5272	0.0954907163977623
0	5630	0.06767059117555618
0	5664	0.006400521844625473
0	5784	0.022489599883556366
0	5796	0.0022377760615199804
0	5768	-0.005193905904889107
0	5886	0.0217905156314373
0	5992	0.019477415829896927
0	5844	-0.027058321982622147
0	5908	0.01165755931288004
0	6000	0.016692470759153366
0	5902	-0.017710842192173004
0	6046	0.025956546887755394
0	5942	-0.018678385764360428
0	6086	0.025807993486523628
0	6068	-0.0032192678190767765
0	6152	0.014988400973379612
0	6010	-0.025256717577576637
0	6060	0.008869861252605915
0	5880	-0.031803619116544724
0	5696	-0.03237156942486763
0	5614	-0.014398932456970215
0	5414	-0.03506270423531532
0	5302	-0.019618835300207138
0	5464	0.028400788083672523
0	5340	-0.021759476512670517
0	5330	-0.001768179819919169
0	5332	0.00035499598016031086
0	5248	-0.014812725596129894
0	5500	0.04415939375758171
0	5352	-0.02582446299493313
0	5530	0.03104470670223236
0	5632	0.01780001074075699
0	5506	-0.02199234440922737
0	5554	0.008391608484089375
0	5570	0.0028011533431708813
0	5662	0.016125261783599854
0	5638	-0.0042121028527617455
0	5556	-0.01442121621221304
0	5578	0.00387565023265779
0	5756	0.031418416649103165
0	5450	-0.05408908799290657
0	5718	0.04749864339828491
0	5608	-0.019533561542630196
0	5698	0.01601366512477398
0	5604	-0.016763960942626
0	5648	0.007868665270507336
0	5498	-0.026905829086899757
0	5708	0.03778383135795593
0	5614	-0.01694854162633419
0	5568	-0.008307247422635555
0	5616	0.00867511611431837
0	5730	0.020603153854608536
0	5706	-0.004329264629632235
0	5634	-0.012956320308148861
0	5798	0.02948155626654625
0	5674	-0.02222992293536663
0	5710	0.006440609227865934
0	5626	-0.014994287863373756
0	5466	-0.028496455401182175
0	5346	-0.021376656368374825
0	5250	-0.017101934179663658
0	5308	0.010349626652896404
0	5330	0.003933300729840994
0	5478	0.02648817002773285
0	5678	0.035811059176921844
0	6490	0.14529924094676971
0	5894	-0.10612409561872482
1	4034	-0.3306901752948761
0	4200	0.02978183887898922
0	4828	0.11360485106706619
0	5460	0.11497180163860321
0	5530	0.012733446434140205
0	5530	0.0
0	5662	0.024050433188676834
0	5544	-0.02150433138012886
0	5610	0.012032232247292995
0	5600	-0.001823486527428031
0	5508	-0.01676568202674389
0	5484	-0.004378975834697485
0	5464	-0.0036520343273878098
0	5454	-0.0018271737499162555
0	5498	0.008047505281865597
0	5556	0.010623100213706493
0	5560	0.0007332991226576269
0	5554	-0.0011004462139680982
0	5440	-0.020939715206623077
0	5426	-0.002575233578681946
0	5556	0.023954598233103752
0	5470	-0.015853703022003174
0	5204	-0.049034666270017624
0	5222	0.003321033203974366
0	4792	-0.07934945076704025
0	4836	0.008145332336425781
0	4718	-0.021911093965172768
0	4470	-0.04626807942986488
0	4798	0.06165645644068718
0	4888	0.01709921285510063
0	4950	0.011854986660182476
0	4634	-0.06007147952914238
0	4794	0.030332520604133606
0	4854	0.011377139016985893
0	4792	-0.0118015818297863
0	4854	0.011857103556394577
0	5068	0.04110325872898102
0	5164	0.018509235233068466
0	5102	-0.011983146890997887
0	4958	-0.027923211455345154
0	4950	-0.0015577536541968584
0	5050	0.019542701542377472
0	4998	-0.01019101683050394
0	5014	0.0031452723778784275
0	4978	-0.007097325287759304
0	4788	-0.03758654743432999
0	5206	0.08311130851507187
0	5218	0.00239158165641129
0	5028	-0.03795142471790314
0	5062	0.006809988059103489
0	4942	-0.024093806743621826
0	5132	0.03830593451857567
0	5226	0.01899450458586216
0	5090	-0.027477338910102844
0	5278	0.03801717609167099
0	5092	-0.03748992085456848
0	5152	0.012072758749127388
0	5046	-0.0212666355073452
0	5366	0.06395480781793594
0	4954	-0.08203140646219254
0	5188	0.04657025635242462
0	5014	-0.03457457199692726
0	4880	-0.02655954845249653
0	4906	0.005150418728590012
0	4772	-0.026535354554653168
0	4664	-0.02138952538371086
0	5166	0.09954655170440674
0	5108	-0.011493949219584465
0	5858	0.14868365228176117
0	6250	0.07732568681240082
1	5226	-0.20029209554195404
0	3622	-0.313175231218338
0	4492	0.17145785689353943
0	4928	0.08621258288621902
0	5408	0.09496676176786423
0	5618	0.04143046960234642
0	5792	0.034141749143600464
0	5826	0.0066459039226174355
0	5710	-0.022584790363907814
0	5848	0.026749717071652412
0	5936	0.01697159931063652
0	6118	0.034877482801675797
0	6022	-0.018281767144799232
0	5964	-0.010989705100655556
0	6310	0.0651993677020073
0	6366	0.010484535247087479
0	6286	-0.014859761111438274
0	6212	-0.013649442233145237
0	6666	0.08314510434865952
0	6494	-0.03125189244747162
0	6544	0.009000900201499462
0	6452	-0.016427984461188316
0	6366	-0.015226269140839577
0	6264	-0.017902065068483353
0	5936	-0.05711367353796959
0	5900	-0.006226506549865007
0	5742	-0.027134090662002563
0	5704	-0.006504473276436329
0	5622	-0.013988399878144264
0	5702	0.013665558770298958
0	5698	-0.0006854166276752949
0	5918	0.037596553564071655
0	5772	-0.024628326296806335
0	5896	0.020767737179994583
0	5948	0.008662238717079163
0	5900	-0.007972009479999542
0	5802	-0.016250815242528915
0	5912	0.01823970302939415
0	5872	-0.0066294679418206215
0	5934	0.010266486555337906
0	5848	-0.014233854599297047
0	5884	0.0059612519107759
0	5906	0.0036476985551416874
0	5782	-0.020572945475578308
0	5976	0.03221913427114487
0	5900	-0.012645309790968895
0	5936	0.006005404982715845
0	5786	-0.025071315467357635
0	5896	0.01842937059700489
0	6056	0.026922127231955528
0	5910	-0.024626940488815308
0	5822	-0.014896738342940807
0	5842	0.0033977008424699306
0	5824	-0.0030670317355543375
0	5998	0.029722249135375023
0	5906	-0.015709666535258293
0	5962	0.00956207886338234
0	6062	0.017053788527846336
0	6080	0.003063447307795286
0	5812	-0.045493125915527344
0	5818	0.0010178693337365985
0	5754	-0.010849909856915474
0	5686	-0.011538722552359104
0	5574	-0.019014203920960426
0	5686	0.019048914313316345
0	5660	-0.004428647458553314
0	5790	0.022173453122377396
0	6292	0.08562948554754257
0	7020	0.12391208112239838
0	6206	-0.13765347003936768
1	4286	-0.3241892457008362
0	4684	0.06779776513576508
0	5156	0.08095499873161316
0	5800	0.11093120276927948
0	5892	0.015845676884055138
0	5864	-0.004824923817068338
0	5888	0.004136504605412483
0	5844	-0.007585683837532997
0	5868	0.004136267118155956
0	5868	0.0
0	5856	-0.0020707030780613422
0	5888	0.005523590371012688
0	5858	-0.005176400300115347
0	5912	0.009316662326455116
0	5916	0.000689774111378938
0	5976	0.010351491160690784
0	5980	0.0006898216670379043
0	5982	0.0003448751522228122
0	6016	0.005865574814379215
0	6030	0.00241612596437335
0	5982	-0.008273485116660595
0	5898	-0.0144649688154459
0	5784	-0.019614815711975098
0	5578	-0.035424403846263885
0	5490	-0.01513240858912468
0	5372	-0.020314006134867668
0	5352	-0.0034487515222281218
0	5312	-0.006914911791682243
0	5416	0.018080877140164375
0	5496	0.014038863591849804
0	5466	-0.005286530125886202
0	5502	0.006300168111920357
0	5464	-0.006618594750761986
0	5602	0.023993046954274178
0	5594	-0.0013924989616498351
0	5622	0.00488218804821372
0	5580	-0.0073335967026650906
0	5608	0.0048978449776768684
0	5646	0.006656235083937645
0	5656	0.0017539141699671745
0	5672	0.0028097450267523527
0	5600	-0.012657485902309418
0	5658	0.010213545523583889
0	5568	-0.01586723141372204
0	5578	0.0017665971536189318
0	5586	0.001416096230968833
0	5610	0.004258087370544672
0	5540	-0.012446656823158264
0	5554	0.002495869994163513
0	5522	-0.005720551125705242
0	5546	0.004303440451622009
0	5594	0.008629368618130684
0	5528	-0.011887037195265293
0	5618	0.016234546899795532
0	5636	0.003246128559112549
0	5690	0.009729847311973572
0	5596	-0.01690485328435898
0	5464	-0.023704059422016144
0	5296	-0.030141377821564674
0	5178	-0.02118593268096447
0	5202	0.004317219834774733
0	5212	0.0018016935791820288
0	5248	0.006497413385659456
0	5324	0.013734608888626099
0	5372	0.008689040318131447
0	6418	0.18960267305374146
0	6202	-0.038965724408626556
1	4560	-0.2951078712940216
0	4052	-0.09187696874141693
0	4492	0.08035062253475189
0	5112	0.11402927339076996
0	5468	0.06570043414831161
0	5608	0.02585824765264988
0	5608	0.0
0	5580	-0.005171968135982752
0	5606	0.004802482668310404
0	5662	0.010342535562813282
0	5626	-0.006646644789725542
0	5658	0.005905003286898136
0	5634	-0.004425921011716127
0	5704	0.012900054454803467
0	5680	-0.004418587312102318
0	5682	0.00036802139948122203
0	5742	0.011030222289264202
0	5778	0.006613108795136213
0	5784	0.001101227244362235
0	5730	-0.009905348531901836
0	5694	-0.006598159670829773
0	5602	-0.016838302835822105
0	5472	-0.023748919367790222
0	5330	-0.0258947666734457
0	5152	-0.03243440389633179
0	4992	-0.029165146872401237
0	4938	-0.0098585719242692
0	4874	-0.011711744591593742
0	4936	0.011380323208868504
0	4964	0.005186529830098152
0	4948	-0.0029865603428333998
0	4944	-0.000744841992855072
0	4992	0.008888889104127884
0	5048	0.010338461957871914
0	5068	0.0036937624681741
0	5138	0.012960082851350307
0	5154	0.0029709222726523876
0	5152	-0.00037241174140945077
0	5110	-0.00784147810190916
0	5152	0.007865757681429386
0	5208	0.010521173477172852
0	5182	-0.004897651728242636
0	5182	0.0
0	5118	-0.012126417830586433
0	5142	0.004564299248158932
0	5272	0.024807898327708244
0	5324	0.009949106723070145
0	5304	-0.003836807794868946
0	5324	0.0038484728429466486
0	5330	0.0011579584097489715
0	5386	0.010835493914783001
0	5398	0.002326513407751918
0	5492	0.018248410895466805
0	5534	0.008152490481734276
0	5548	0.0027139144949615
0	5592	0.008507676422595978
0	5662	0.01348280068486929
0	5608	-0.010352893732488155
0	5488	-0.022899014875292778
0	5386	-0.019396061077713966
0	5302	-0.01593061350286007
0	5348	0.008704428561031818
0	5364	0.0030199314933270216
0	5372	0.001506440108641982
0	5516	0.027060886844992638
0	5616	0.018739692866802216
0	6326	0.13265572488307953
0	6594	0.049710024148225784
1	5142	-0.2669444680213928
1	4254	-0.1632232964038849
0	5026	0.1426863968372345
0	5630	0.11176078766584396
0	5886	0.04723828285932541
0	5952	0.01212611235678196
0	5976	0.0043870871886610985
0	5984	0.0014549687039107084
0	5966	-0.003259609919041395
0	5988	0.003968588076531887
0	6012	0.004311635158956051
0	5980	-0.005725259426981211
0	6028	0.008554726839065552
0	6056	0.004971296526491642
0	6046	-0.001768575981259346
0	6080	0.0059935832396149635
0	6134	0.009488778188824654
0	6114	-0.003502340754494071
0	6122	0.0013966806000098586
0	6128	0.0010447136592119932
0	6046	-0.014234793372452259
0	5968	-0.013496833853423595
0	5748	-0.037940628826618195
0	5598	-0.025802457705140114
0	5378	-0.03778943046927452
0	5118	-0.0446566566824913
0	5046	-0.01238446868956089
0	4920	-0.021731380373239517
0	4902	-0.0031169550493359566
0	4954	0.009079163894057274
0	5024	0.012339729815721512
0	4958	-0.01164267584681511
0	4932	-0.004567600321024656
0	4972	0.00703094806522131
0	4904	-0.01199887041002512
0	5000	0.01703799143433571
0	5038	0.00678240368142724
0	5080	0.0075384099036455154
0	5110	0.005413859151303768
0	5186	0.01378609798848629
0	5296	0.020050793886184692
0	5368	0.013181501068174839
0	5370	0.0003675254702102393
0	5462	0.016974586993455887
0	5466	0.0007407315424643457
0	5536	0.01300937868654728
0	5614	0.014545182697474957
0	5704	0.01683732680976391
0	5830	0.023632680997252464
0	6046	0.04058726131916046
0	6254	0.03910411521792412
0	6330	0.014269441366195679
0	6490	0.029973024502396584
0	6584	0.01752793975174427
0	6500	-0.015567855909466743
0	6420	-0.014724468812346458
0	6166	-0.046379707753658295
0	6012	-0.027929583564400673
0	5880	-0.0237826406955719
0	5796	-0.015046034008264542
0	5646	-0.02673352137207985
0	5652	0.0010654040379449725
0	5654	0.0003536818257998675
0	5936	0.04965779557824135
0	6668	0.12817369401454926
1	5698	-0.1681167483329773
1	3896	-0.31106147170066833
0	4260	0.06324934959411621
0	4640	0.06634464114904404
0	5134	0.08648459613323212
0	5396	0.045882269740104675
0	5454	0.010151217691600323
0	5498	0.007697062101215124
0	5646	0.025870809331536293
0	5728	0.014318475499749184
0	5682	-0.008020085282623768
0	5796	0.019859012216329575
0	5828	0.005568574648350477
0	5834	0.0010433573042973876
0	5852	0.0031299993861466646
0	5812	-0.006963383872061968
0	5808	-0.0006981290061958134
0	5792	-0.002801022259518504
0	5910	0.020742027088999748
0	5924	0.002470675390213728
0	5870	-0.009562147781252861
0	5814	-0.00994859915226698
0	5684	-0.02314320206642151
0	5566	-0.02104787528514862
0	5388	-0.031809572130441666
0	5178	-0.03761957585811615
0	5016	-0.02910214476287365
0	4956	-0.01081977877765894
0	4912	-0.0079679349437356
0	4994	0.014941691420972347
0	5032	0.006995324045419693
0	5094	0.01146025862544775
0	5132	0.006972562521696091
0	5156	0.0043803611770272255
0	5210	0.009824969805777073
0	5286	0.013821364380419254
0	5314	0.005095479544252157
0	5328	0.0025499053299427032
0	5376	0.008751564659178257
0	5418	0.007670205552130938
0	5542	0.022688183933496475
0	5566	0.004395014140754938
0	5608	0.0077020879834890366
0	5622	0.002570820041000843
0	5642	0.003677372122183442
0	5690	0.00883706659078598
0	5660	-0.0055273049511015415
0	5700	0.0073764449916779995
0	5734	0.006273525767028332
0	5878	0.026599019765853882
0	5844	-0.00628210324794054
0	5934	0.016631759703159332
0	5968	0.006278468295931816
0	5980	0.0022120631765574217
0	5914	-0.012135475873947144
0	5732	-0.033356957137584686
0	5568	-0.029956525191664696
0	5478	-0.016384489834308624
0	5532	0.009799651801586151
0	5548	0.0028927510138601065
0	5626	0.014055236242711544
0	5662	0.006463969126343727
0	5788	0.022547241300344467
0	6724	0.16684095561504364
0	6662	-0.010949420742690563
1	5162	-0.2626602351665497
0	4542	-0.10864486545324326
0	4928	0.06794658303260803
0	5406	0.08433904498815536
0	5866	0.08114878088235855
0	6006	0.024632565677165985
0	6042	0.006316897924989462
0	5984	-0.010148968547582626
0	6024	0.006983971688896418
0	6038	0.00243868469260633
0	6070	0.005561348516494036
0	6024	-0.007976878434419632
0	5984	-0.006921852473169565
0	5974	-0.0017276329454034567
0	5956	-0.0031054471619427204
0	5992	0.0062081096693873405
0	5946	-0.007925841957330704
0	5998	0.0089590298011899
0	6022	0.004134224262088537
0	6016	-0.0010333069367334247
0	6016	0.0
0	5922	-0.016152681782841682
0	5660	-0.04493020474910736
0	5520	-0.023983553051948547
0	5364	-0.026726365089416504
0	5300	-0.010976195335388184
0	5302	0.0003436465631239116
0	5342	0.0068871318362653255
0	5420	0.013464370742440224
0	5434	0.002434951951727271
0	5452	0.003153100609779358
0	5486	0.0059457882307469845
0	5530	0.007652440574020147
0	5566	0.00623931223526597
0	5560	-0.0010389250237494707
0	5654	0.016305290162563324
0	5678	0.004171543288975954
0	5684	0.001045089797116816
0	5714	0.005234566982835531
0	5748	0.005943224765360355
0	5740	-0.0014007727149873972
0	5698	-0.007368248887360096
0	5618	-0.014061566442251205
0	5574	-0.007750481367111206
0	5466	-0.01906869374215603
0	5430	-0.006374614778906107
0	5376	-0.00959374662488699
0	5320	-0.009982768446207047
0	5248	-0.01288690511137247
0	5292	0.007911866530776024
0	5370	0.014086711220443249
0	5342	-0.005076510366052389
0	5414	0.013099800795316696
0	5414	0.0
0	5410	-0.0007293237140402198
0	5366	-0.008020318113267422
0	5242	-0.022593654692173004
0	5092	-0.027340997010469437
0	4994	-0.0178899597376585
0	4980	-0.00256235059350729
0	4958	-0.0040377345867455006
0	4958	0.0
0	5066	0.019946318119764328
0	5126	0.011113031767308712
0	5946	0.15229180455207825
0	6056	0.020380686968564987
1	4798	-0.23250369727611542
1	3938	-0.15981169044971466
0	4584	0.12135709822177887
0	5018	0.08211195468902588
0	5234	0.041055794805288315
0	5294	0.011441065929830074
0	5348	0.010323469527065754
0	5436	0.016852427273988724
0	5412	-0.00460016867145896
0	5384	-0.005368715617805719
0	5396	0.0023015548940747976
0	5410	0.002684804145246744
0	5430	0.003833229187875986
0	5436	0.0011486330768093467
0	5464	0.005355366971343756
0	5560	0.018350260332226753
0	5642	0.01565244048833847
0	5706	0.012198841199278831
0	5782	0.014459297992289066
0	5826	0.008351470343768597
0	5818	-0.0015140427276492119
0	5744	-0.013954189606010914
0	5594	-0.02817007340490818
0	5476	-0.0220775343477726
0	5330	-0.027232030406594276
0	5246	-0.01563159003853798
0	5106	-0.026006191968917847
0	4998	-0.02005695179104805
0	4894	-0.019329417496919632
0	4794	-0.01870790682733059
0	4686	-0.020364806056022644
0	4638	-0.009057401679456234
0	4548	-0.016908181831240654
0	4460	-0.016536172479391098
0	4436	-0.0045256828889250755
0	4354	-0.015540702268481255
0	4268	-0.01639615185558796
0	4230	-0.007294879760593176
0	4244	0.0027084893081337214
0	4242	-0.00038986356230452657
0	4330	0.017282238230109215
0	4456	0.024918915703892708
0	4484	0.005572582595050335
0	4534	0.010013885796070099
0	4554	0.0040298206731677055
0	4638	0.017029328271746635
0	4734	0.019584110006690025
0	4740	0.0012316113570705056
0	4882	0.029342075809836388
0	5064	0.0378420315682888
0	5066	0.0004180543473921716
0	5094	0.005883588921278715
0	5246	0.03208556026220322
0	5272	0.0055017913691699505
0	5228	-0.009324141778051853
0	5156	-0.015268687158823013
0	4994	-0.034376416355371475
0	4996	0.00042473667417652905
0	5068	0.015290736220777035
0	5138	0.014847705140709877
0	5194	0.01184934377670288
0	5266	0.015180479735136032
0	5416	0.03148702532052994
0	6256	0.17526289820671082
0	6212	-0.009067179635167122
1	4904	-0.26629388332366943
0	4152	-0.1525292992591858
0	4472	0.06495703011751175
0	5060	0.11916342377662659
0	5508	0.09029345214366913
0	5694	0.037171751260757446
0	5782	0.01742827333509922
0	5778	-0.0007853197166696191
0	5774	-0.0007787251961417496
0	5744	-0.0057938178069889545
0	5784	0.007666359655559063
0	5796	0.0022831920068711042
0	5782	-0.002645902568474412
0	5698	-0.015771884471178055
0	5624	-0.013823679648339748
0	5634	0.0018615734297782183
0	5668	0.006307119503617287
0	5706	0.00702420249581337
0	5684	-0.004055149853229523
0	5692	0.0014708767412230372
0	5676	-0.0029334116261452436
0	5690	0.0025586041156202555
0	5558	-0.02402213029563427
0	5376	-0.033008888363838196
0	5268	-0.019551286473870277
0	5234	-0.0061502098105847836
0	5118	-0.020978009328246117
0	5208	0.0162905752658844
0	5320	0.020298190414905548
0	5436	0.02114267647266388
0	5610	0.031864240765571594
0	5670	0.010940520092844963
0	5750	0.014454000629484653
0	5786	0.006454620510339737
0	5852	0.011782348155975342
0	5874	0.0039194258861243725
0	5800	-0.013169446028769016
0	5786	-0.0024912510998547077
0	5648	-0.024555452167987823
0	5632	-0.0028491381090134382
0	5590	-0.007483962923288345
0	5608	0.0032111129257827997
0	5642	0.006072223652154207
0	5586	-0.010009652003645897
0	5660	0.013235872611403465
0	5690	0.00536474259570241
0	5726	0.0064355432987213135
0	5718	-0.0014296266017481685
0	5860	0.02537405863404274
0	5938	0.01392326783388853
0	5938	0.0
0	5974	0.006406757514923811
0	6018	0.007817312143743038
0	5914	-0.018427083268761635
0	5880	-0.006005157716572285
0	5750	-0.022878462448716164
0	5646	-0.018247535452246666
0	5610	-0.006297009065747261
0	5780	0.029666341841220856
0	5752	-0.004873181227594614
0	5850	0.017024923115968704
0	5964	0.01977701671421528
0	6646	0.11811432242393494
0	7288	0.11061464250087738
1	5962	-0.22651179134845734
0	4238	-0.2943151593208313
0	4704	0.0803014487028122
0	5290	0.1016196683049202
0	6002	0.12382464855909348
0	6284	0.04894247278571129
0	6376	0.015907047316432
0	6380	0.0006884918548166752
0	6400	0.0034272789489477873
0	6450	0.008531258441507816
0	6442	-0.0013583265244960785
0	6422	-0.0033808532170951366
0	6416	-0.00101008964702487
0	6356	-0.01006193645298481
0	6436	0.01336823869496584
0	6472	0.00599646894261241
0	6480	0.0013286093017086387
0	6480	0.0
0	6624	0.023777024820446968
0	6448	-0.028964200988411903
0	6414	-0.005579014308750629
0	6436	0.003599436953663826
0	6124	-0.050856299698352814
0	6064	-0.009754722937941551
0	5666	-0.06454751640558243
0	5546	-0.019473563879728317
0	5490	-0.009097801521420479
0	5466	-0.00390667375177145
0	5516	0.008160955272614956
0	5530	0.0022992028389126062
0	5604	0.012271023355424404
0	5680	0.012627661228179932
0	5562	-0.01945076324045658
0	5690	0.021000130102038383
0	5798	0.017680184915661812
0	5588	-0.03441644832491875
0	5750	0.02665116637945175
0	5794	0.007263523060828447
0	5786	-0.001324912765994668
0	5852	0.010967706330120564
0	5880	0.004668430425226688
0	5862	-0.003010536776855588
0	5750	-0.018790895119309425
0	5944	0.03267019987106323
0	5722	-0.03747215121984482
0	5726	0.0006778971292078495
0	5722	-0.0006807660683989525
0	5942	0.03760383650660515
0	5954	0.0020574249792844057
0	5626	-0.056452441960573196
0	5692	0.011413156986236572
0	5638	-0.009377062320709229
0	5534	-0.01814333163201809
0	5632	0.017155461013317108
0	5414	-0.038258589804172516
0	5230	-0.03233933076262474
0	5348	0.02077781781554222
0	5370	0.0038770618848502636
0	5368	-0.0003526590298861265
0	5486	0.02082500047981739
0	5446	-0.007061149924993515
0	5742	0.052301134914159775
0	6690	0.16744382679462433
0	6490	-0.03509264439344406
1	4838	-0.28851526975631714
0	4798	-0.007025103084743023
0	5070	0.04799266159534454
0	5626	0.09849657118320465
0	6006	0.06738464534282684
0	6024	0.0031877588480710983
0	6130	0.01875331625342369
0	6086	-0.00777293648570776
0	6044	-0.007409846875816584
0	6096	0.009158262051641941
0	6174	0.013725144788622856
0	6100	-0.012986860238015652
0	6138	0.00665436964482069
0	6210	0.012577737681567669
0	6206	-0.0006976744043640792
0	6224	0.0031349416822195053
0	6238	0.002429852494969964
0	6262	0.004152345005422831
0	6310	0.008274910971522331
0	6222	-0.015103320591151714
0	6282	0.010263076983392239
0	6142	-0.023829245939850807
0	5992	-0.025399908423423767
0	5776	-0.03644339367747307
0	5516	-0.043767113238573074
0	5428	-0.01480119302868843
0	5242	-0.03129451721906662
0	5252	0.00168442795984447
0	5050	-0.034119315445423126
0	5086	0.006137339863926172
0	5114	0.004811878781765699
0	5046	-0.011667544022202492
0	5132	0.01473511103540659
0	5132	0.0
0	5130	-0.000343524559866637
0	5194	0.011048197746276855
0	5246	0.009019738994538784
0	5278	0.005579125136137009
0	5388	0.01926872320473194
0	5408	0.003516875207424164
0	5488	0.014124460518360138
0	5600	0.01985440030694008
0	5670	0.01244577206671238
0	5698	0.004992155358195305
0	5794	0.0171681996434927
0	5836	0.007529580499976873
0	5850	0.00251569296233356
0	5856	0.0010806657373905182
0	5948	0.01661069504916668
0	5998	0.00904726330190897
0	6034	0.00652284175157547
0	5946	-0.015968643128871918
0	5804	-0.025798169896006584
0	5618	-0.03383048251271248
0	5548	-0.012744110077619553
0	5526	-0.0040045143105089664
0	5570	0.008004268631339073
0	5604	0.006172839552164078
0	5610	0.0010870089754462242
0	5776	0.029972555115818977
0	6608	0.14960262179374695
0	6066	-0.09659252315759659
1	4238	-0.32381489872932434
0	4848	0.10862983763217926
0	5338	0.08740739524364471
0	5702	0.06485099345445633
0	5800	0.0174073688685894
0	5812	0.002124545630067587
0	5746	-0.01164829172194004
0	5786	0.007044733967632055
0	5766	-0.003514567855745554
0	5758	-0.0014035416534170508
0	5738	-0.0035056148190051317
0	5738	0.0
0	5754	0.0028027233202010393
0	5816	0.010863089933991432
0	5798	-0.003154168836772442
0	5794	-0.0007011393317952752
0	5748	-0.008066024631261826
0	5734	-0.002457750029861927
0	5684	-0.008791260421276093
0	5738	0.009514077566564083
0	5604	-0.023637881502509117
0	5572	-0.005651513580232859
0	5412	-0.028265222907066345
0	5230	-0.032177459448575974
0	5142	-0.0155855193734169
0	5082	-0.01065340917557478
0	5038	-0.007836711592972279
0	5082	0.007863415405154228
0	5060	-0.003948029596358538
0	5132	0.013041588477790356
0	5152	0.003643208649009466
0	5160	0.0014492403715848923
0	5206	0.008317462168633938
0	5172	-0.006152584217488766
0	5206	0.006172316614538431
0	5230	0.004372646566480398
0	5264	0.006216555833816528
0	5314	0.009168927557766438
0	5370	0.010298913344740868
0	5380	0.0018435672391206026
0	5448	0.01256544515490532
0	5448	0.0
0	5502	0.010014217346906662
0	5500	-0.0003714756458066404
0	5512	0.002233223058283329
0	5522	0.001864326768554747
0	5556	0.006349443923681974
0	5668	0.020940842106938362
0	5610	-0.010848826728761196
0	5646	0.006736862938851118
0	5740	0.01760079897940159
0	5784	0.008231684565544128
0	5726	-0.010836530476808548
0	5712	-0.00261060893535614
0	5648	-0.011898565106093884
0	5480	-0.031136097386479378
0	5494	0.002588310744613409
0	5594	0.018436124548316002
0	5568	-0.0047783576883375645
0	5710	0.026016220450401306
0	5674	-0.006572461687028408
0	6250	0.10482638329267502
0	6130	-0.021695373579859734
1	4668	-0.26285824179649353
0	4494	-0.031378865242004395
0	4962	0.0847611129283905
0	5454	0.08925224095582962
0	5722	0.04856128245592117
0	5772	0.009037668816745281
0	5738	-0.006130765657871962
0	5696	-0.007557037752121687
0	5732	0.006467840634286404
0	5712	-0.0035871434956789017
0	5720	0.001433058176189661
0	5770	0.008944864384829998
0	5734	-0.006430408917367458
0	5760	0.0046383291482925415
0	5752	-0.001425449037924409
0	5738	-0.002493291860446334
0	5774	0.006406453903764486
0	5808	0.006045949179679155
0	5798	-0.0017775038722902536
0	5810	0.0021328276488929987
0	5706	-0.018475312739610672
0	5630	-0.013501670211553574
0	5556	-0.013147763907909393
0	5418	-0.02450777217745781
0	5252	-0.029493631795048714
0	5142	-0.01958364062011242
0	5076	-0.011779963970184326
0	5034	-0.007524724118411541
0	5028	-0.0010790849337354302
0	5044	0.0028987957630306482
0	5094	0.009118541143834591
0	5132	0.006912190932780504
0	5192	0.010871929116547108
0	5204	0.002171369269490242
0	5256	0.00942347664386034
0	5264	0.0014538581017404795
0	5288	0.004375038202852011
0	5312	0.004387034103274345
0	5296	-0.0029315482825040817
0	5352	0.0102878138422966
0	5350	-0.00036823368282057345
0	5344	-0.0011072152992710471
0	5352	0.0014801658689975739
0	5296	-0.01038562785834074
0	5302	0.0011159469140693545
0	5322	0.003730229800567031
0	5408	0.01608157902956009
0	5494	0.016118351370096207
0	5508	0.002629074966534972
0	5600	0.017308199778199196
0	5686	0.01620073802769184
0	5586	-0.018840434029698372
0	5498	-0.016584165394306183
0	5432	-0.01244265679270029
0	5278	-0.029030313715338707
0	5310	0.006031287368386984
0	5278	-0.006024928297847509
0	5380	0.019180143252015114
0	5356	-0.004503208678215742
0	5468	0.02097195014357567
0	6174	0.1318492442369461
0	5846	-0.06084665656089783
1	4494	-0.2497044950723648
0	4240	-0.04711439833045006
0	4774	0.0996454581618309
0	5306	0.09957077354192734
0	5534	0.042662009596824646
0	5592	0.010835990309715271
0	5698	0.01976923458278179
0	5656	-0.007813566364347935
0	5706	0.009284361265599728
0	5630	-0.014081201516091824
0	5684	0.009987423196434975
0	5666	-0.0033223407808691263
0	5692	0.004788036923855543
0	5698	0.0011022926773875952
0	5642	-0.01026443112641573
0	5738	0.017571046948432922
0	5790	0.009503503330051899
0	5794	0.0007297849515452981
0	5630	-0.029885923489928246
0	5754	0.022604363039135933
0	5862	0.019667593762278557
0	5812	-0.009085292927920818
0	5796	-0.002900617429986596
0	5380	-0.07518072426319122
0	5182	-0.0357680507004261
0	5216	0.006145540624856949
0	5312	0.017369277775287628
0	5462	0.027146700769662857
0	5616	0.027871619910001755
0	5678	0.011258943006396294
0	5686	0.0014542457647621632
0	5758	0.012994357384741306
0	5734	-0.00429225480183959
0	5624	-0.019560886546969414
0	5588	-0.0063897003419697285
0	5444	-0.025550639256834984
0	5334	-0.019534951075911522
0	5194	-0.024916352704167366
0	4938	-0.045686546713113785
0	4754	-0.032987918704748154
0	4696	-0.010453087277710438
0	4644	-0.009427690878510475
0	4624	-0.00364856980741024
0	4606	-0.0033051781356334686
0	4636	0.005545696243643761
0	4764	0.023809228092432022
0	4946	0.03405943512916565
0	4992	0.008653990924358368
0	5170	0.03365645185112953
0	5182	0.0022755716927349567
0	5258	0.014464251697063446
0	5240	-0.0034389207139611244
0	5216	-0.004601991735398769
0	5070	-0.02809962071478367
0	5108	0.007328173611313105
0	5154	0.008875168859958649
0	5266	0.021617727354168892
0	5346	0.01544580515474081
0	5450	0.020094547420740128
0	5990	0.10444874316453934
0	6402	0.07953053712844849
1	5396	-0.1933029294013977
1	4232	-0.22418241202831268
0	5078	0.1645231544971466
0	5638	0.10929104685783386
0	5820	0.035508036613464355
0	5892	0.01401287131011486
0	5852	-0.007756848353892565
0	5818	-0.006565396673977375
0	5860	0.008064515888690948
0	5740	-0.02287951298058033
0	5928	0.035608310252428055
0	5992	0.012024499475955963
0	6106	0.02123669534921646
0	6288	0.033591315150260925
0	6348	0.010962641797959805
0	6406	0.010495965369045734
0	6588	0.032648082822561264
0	6634	0.008173709735274315
0	6656	0.0038755591958761215
0	6762	0.018512912094593048
0	6666	-0.016620881855487823
0	6626	-0.006868839729577303
0	6522	-0.017715999856591225
0	6460	-0.01047509629279375
0	6174	-0.0479554645717144
0	6174	0.0
0	6050	-0.020570214837789536
0	5938	-0.018507501110434532
0	5916	-0.0036256564781069756
0	5854	-0.010221914388239384
0	5802	-0.008599115535616875
0	5778	-0.003959960304200649
0	5704	-0.012106933631002903
0	5568	-0.022174876183271408
0	5626	0.00946053210645914
0	5556	-0.011429940350353718
0	5608	0.008506368845701218
0	5562	-0.007534889969974756
0	5504	-0.009513811208307743
0	5452	-0.008546259254217148
0	5420	-0.005267547909170389
0	5398	-0.003631561528891325
0	5348	-0.008280613459646702
0	5276	-0.011974189430475235
0	5270	-0.001003478653728962
0	5276	0.0010095458710566163
0	5250	-0.004402600694447756
0	5288	0.006483535282313824
0	5240	-0.008252905681729317
0	5254	0.002426791936159134
0	5310	0.009792492724955082
0	5118	-0.03384174033999443
0	5062	-0.009958742186427116
0	4914	-0.026549307629466057
0	4854	-0.010863660834729671
0	4854	0.0
0	4850	-0.0007359705632552505
0	4984	0.024837812408804893
0	5006	0.00410202844068408
0	5418	0.07725676149129868
0	6054	0.11958633363246918
1	4846	-0.22678063809871674
1	3544	-0.24586141109466553
0	4278	0.1405143290758133
0	4886	0.11735941469669342
0	5434	0.10628394037485123
0	5416	-0.003493834286928177
0	5500	0.016324838623404503
0	5558	0.01127644069492817
0	5542	-0.003109654178842902
0	5574	0.006215684115886688
0	5600	0.005045212805271149
0	5546	-0.010464846156537533
0	5600	0.010451477952301502
0	5646	0.00888453982770443
0	5686	0.007707029581069946
0	5640	-0.008839807473123074
0	5656	0.0030670533888041973
0	5686	0.005737234838306904
0	5610	-0.014493121765553951
0	5640	0.005708052311092615
0	5602	-0.007215098477900028
0	5620	0.003407241078093648
0	5568	-0.009808606468141079
0	5428	-0.02629964053630829
0	5260	-0.03144654259085655
0	5172	-0.01643037609755993
0	5104	-0.012670807540416718
0	5034	-0.013033764436841011
0	5018	-0.0029786282684653997
0	5040	0.004105805419385433
0	5032	-0.0015024978201836348
0	5080	0.009004502557218075
0	5056	-0.004459419287741184
0	5060	0.0007396723376587033
0	5078	0.0033249591942876577
0	5088	0.00185125763528049
0	5126	0.0070490469224750996
0	5066	-0.01115587167441845
0	5136	0.013054993003606796
0	5206	0.013088027015328407
0	5152	-0.010119686834514141
0	5170	0.0033826956059783697
0	5140	-0.005651136860251427
0	5180	0.007556675001978874
0	5198	0.003410512115806341
0	5280	0.015584810636937618
0	5374	0.01790635474026203
0	5368	-0.0011450090678408742
0	5378	0.0019122165394946933
0	5496	0.022597571834921837
0	5644	0.028368793427944183
0	5614	-0.005748888477683067
0	5530	-0.016097504645586014
0	5462	-0.013034477829933167
0	5242	-0.042161207646131516
0	5162	-0.015333111397922039
0	5180	0.003450170625001192
0	5238	0.011111821047961712
0	5338	0.01913338527083397
0	5324	-0.002673218259587884
0	6004	0.12960773706436157
0	6074	0.013260086998343468
1	4778	-0.24396978318691254
0	4290	-0.09202569723129272
0	4886	0.11293867230415344
0	5386	0.09486225992441177
0	5880	0.09354761242866516
0	5832	-0.009046589955687523
0	5986	0.02888547070324421
0	5914	-0.013433503918349743
0	5934	0.003715170081704855
0	5956	0.004066994413733482
0	5986	0.005519169848412275
0	5978	-0.001464182510972023
0	5952	-0.004735538270324469
0	5948	-0.0007252245559357107
0	5992	0.007945394143462181
0	5950	-0.007556131575256586
0	6010	0.010756929405033588
0	6018	0.0014288605889305472
0	5952	-0.011751579120755196
0	5904	-0.008531007915735245
0	5812	-0.01632305420935154
0	5680	-0.02338103950023651
0	5594	-0.015213520266115665
0	5378	-0.038131553679704666
0	5252	-0.02221517078578472
0	5172	-0.01409890316426754
0	5132	-0.007052185945212841
0	5078	-0.009531990624964237
0	5118	0.007070969324558973
0	5220	0.01812559925019741
0	5356	0.02429034188389778
0	5370	0.0024919011630117893
0	5570	0.03537193313241005
0	5508	-0.01092126127332449
0	5692	0.03238828107714653
0	5694	0.00035243533784523606
0	5720	0.004585376009345055
0	5706	-0.0024729156866669655
0	5736	0.005305602680891752
0	5616	-0.02124721184372902
0	5572	-0.007806308567523956
0	5524	-0.008536875247955322
0	5504	-0.0035666306503117085
0	5444	-0.010728462599217892
0	5432	-0.0021521577145904303
0	5482	0.008997444994747639
0	5498	0.0028872876428067684
0	5514	0.0028962071519345045
0	5548	0.006173213478177786
0	5524	-0.004368242807686329
0	5380	-0.026270022615790367
0	5240	-0.025607571005821228
0	5098	-0.026043258607387543
0	5068	-0.00551883177831769
0	5156	0.016219403594732285
0	5154	-0.0003688403812702745
0	5280	0.023239515721797943
0	5272	-0.0014741834020242095
0	5752	0.0883457213640213
0	6138	0.07076941430568695
1	4716	-0.25925567746162415
0	4018	-0.1277545988559723
0	4586	0.10482541471719742
0	5086	0.0928378701210022
0	5508	0.07856035232543945
0	5866	0.06672216951847076
0	5766	-0.01861758343875408
0	5152	-0.11427933722734451
0	5402	0.046691153198480606
0	5562	0.02994460053741932
0	5642	0.0149773471057415
0	5792	0.02807026356458664
0	5886	0.01756134070456028
0	6026	0.026093116030097008
0	6090	0.011885306797921658
0	6102	0.0022194546181708574
0	6174	0.013266020454466343
0	6062	-0.020550711080431938
0	6042	-0.0036575105041265488
0	5912	-0.02370244450867176
0	5826	-0.01564318872988224
0	5684	-0.02575979195535183
0	5510	-0.031480297446250916
0	5328	-0.032846055924892426
0	5044	-0.05117424577474594
0	4940	-0.018752479925751686
0	4778	-0.02924821339547634
0	4870	0.016660427674651146
0	4886	0.0029045140836387873
0	4828	-0.010584328323602676
0	4862	0.0062544457614421844
0	4834	-0.005146112758666277
0	4858	0.004389012698084116
0	4822	-0.006572621408849955
0	4908	0.01572652906179428
0	4874	-0.00624028779566288
0	4910	0.006647708360105753
0	4900	-0.0018563667545095086
0	4928	0.005205944646149874
0	5010	0.015290900133550167
0	5060	0.009355820715427399
0	5022	-0.0071363290771842
0	5160	0.02604166604578495
0	5200	0.007582938298583031
0	5340	0.026679540053009987
0	5444	0.019913960248231888
0	5478	0.006537791341543198
0	5606	0.024723151698708534
0	5682	0.014722594991326332
0	5748	0.012815202586352825
0	5610	-0.026823896914720535
0	5450	-0.031143752858042717
0	5368	-0.01598544418811798
0	5358	-0.0019512450089678168
0	5444	0.016777433454990387
0	5552	0.02101467177271843
0	5670	0.022869694977998734
0	5788	0.022738659754395485
0	6774	0.18888889253139496
0	6020	-0.14272373914718628
1	4478	-0.28970441222190857
0	4718	0.04519887641072273
0	5238	0.09800226241350174
0	5840	0.11318626254796982
0	6008	0.031386613845825195
0	6012	0.0007422160124406219
0	5978	-0.006264740135520697
0	5972	-0.0010983379324898124
0	5954	-0.003273600246757269
0	5874	-0.0144593995064497
0	5898	0.004315356723964214
0	5818	-0.01431263517588377
0	5770	-0.008547008968889713
0	5724	-0.008161334320902824
0	5670	-0.009551098570227623
0	5710	0.007061149924993515
0	5700	-0.001762528670951724
0	5692	-0.0014081861590966582
0	5610	-0.01442662999033928
0	5586	-0.004224211908876896
0	5540	-0.008104108273983002
0	5478	-0.010927421040832996
0	5278	-0.03524394705891609
0	5134	-0.025389064103364944
0	4982	-0.026834895834326744
0	4794	-0.03328101336956024
0	4782	-0.0021338644437491894
0	4772	-0.0017876295605674386
0	4782	0.0017985180020332336
0	4832	0.009101279079914093
0	4844	0.00220016622915864
0	4772	-0.013171534053981304
0	4792	0.0036575552076101303
0	4802	0.0018337633227929473
0	4766	-0.0066437008790671825
0	4870	0.01934068091213703
0	4944	0.013859753496944904
0	4984	0.007540435530245304
0	5006	0.0041731479577720165
0	5076	0.013358267955482006
0	4946	-0.024934785440564156
0	4828	-0.022771716117858887
0	4914	0.01670270413160324
0	4956	0.008202590979635715
0	5142	0.036508288234472275
0	5168	0.005121000111103058
0	5138	-0.00592994736507535
0	5458	0.06348786503076553
0	5066	-0.07789317518472672
0	4800	-0.05304722487926483
0	4788	-0.0024056772235780954
0	4692	-0.01934261992573738
0	4576	-0.023496368899941444
0	4800	0.045588377863168716
0	4842	0.008567232638597488
0	5000	0.03225982189178467
0	4702	-0.060759287327528
0	5318	0.12566471099853516
0	5816	0.10121677070856094
1	4600	-0.24542848765850067
1	3244	-0.27411291003227234
0	4066	0.16797679662704468
0	4778	0.1462012380361557
0	5060	0.05791109427809715
0	5200	0.02869950234889984
0	5016	-0.037607815116643906
0	5248	0.047371428459882736
0	5106	-0.028934713453054428
0	4974	-0.026874788105487823
0	4942	-0.006516515277326107
0	5292	0.07133927941322327
0	5164	-0.026028605177998543
0	4984	-0.036519549787044525
0	5172	0.03812459111213684
0	5284	0.022679410874843597
0	5394	0.022253092378377914
0	5102	-0.05898195877671242
0	5248	0.029498126357793808
0	5136	-0.022660749033093452
0	5340	0.041255462914705276
0	4992	-0.07012170553207397
0	4982	-0.002012234413996339
0	4860	-0.024501599371433258
0	4706	-0.030869558453559875
0	4668	-0.007621950935572386
0	4696	0.0056227161549031734
0	4490	-0.04145147278904915
0	4694	0.041107483208179474
0	4432	-0.05301712080836296
0	4240	-0.03921835869550705
0	4474	0.04791481792926788
0	4682	0.042236361652612686
0	4674	-0.001617730245925486
0	4836	0.032782018184661865
0	4958	0.02472505159676075
0	4540	-0.0848524197936058
0	4708	0.034213561564683914
0	4784	0.015534508973360062
0	4896	0.022943297401070595
0	4870	-0.005328960716724396
0	4996	0.025837672874331474
0	4930	-0.013561458326876163
0	5246	0.06503485143184662
0	5236	-0.0020543725695461035
0	5414	0.036551810801029205
0	5004	-0.08411751687526703
0	4832	-0.035382695496082306
0	5094	0.053996868431568146
0	5330	0.048689913004636765
0	5374	0.009065684862434864
0	5216	-0.032546449452638626
0	5350	0.027560295537114143
0	5786	0.08944812417030334
1	4880	-0.18470193445682526
0	5334	0.09244552999734879
0	5500	0.03364955633878708
0	6518	0.20524193346500397
0	6524	0.001193412346765399
1	5254	-0.24957747757434845
1	4216	-0.20289288461208344
0	5152	0.18298403918743134
0	5822	0.13040602207183838
0	6088	0.05139302462339401
0	6174	0.016465844586491585
0	6244	0.0132889524102211
0	6290	0.008662248030304909
0	6312	0.004097800701856613
0	6290	-0.004057393409311771
0	6320	0.005482055712491274
0	6378	0.010507499799132347
0	6358	-0.003590578446164727
0	6440	0.014602353796362877
0	6394	-0.008118793368339539
0	6554	0.028049835935235023
0	6540	-0.0024356015492230654
0	6546	0.001037057489156723
0	6646	0.017132088541984558
0	6558	-0.014921660535037518
0	6596	0.006390564609318972
0	6534	-0.010353234596550465
0	6394	-0.023228289559483528
0	6276	-0.019451403990387917
0	6090	-0.030505472794175148
0	5926	-0.026852671056985855
0	5942	0.002604901557788253
0	5904	-0.006166295148432255
0	5932	0.004533678758889437
0	5952	0.003248616587370634
0	5982	0.004888063296675682
0	6076	0.015255613252520561
0	6154	0.01253280509263277
0	6198	0.007032048888504505
0	6210	0.0019139976939186454
0	6242	0.005100685637444258
0	6200	-0.006692232098430395
0	6262	0.009881317615509033
0	6280	0.002869196468964219
0	6360	0.012754152528941631
0	6272	-0.014024351723492146
0	6316	0.0070139640010893345
0	6384	0.010843334719538689
0	6420	0.005739795975387096
0	6408	-0.001913468586280942
0	6416	0.0012755509233102202
0	6378	-0.006063313689082861
0	6396	0.0028745729941874743
0	6238	-0.025252526625990868
0	6094	-0.023065093904733658
0	5872	-0.03564699739217758
0	5820	-0.008382229134440422
0	5846	0.0042072562500834465
0	5948	0.016554322093725204
0	6028	0.013006861321628094
0	6024	-0.0006505616474896669
0	7014	0.16092851758003235
0	6114	-0.14545376598834991
1	4672	-0.2327858954668045
0	5028	0.05786234512925148
0	5546	0.08461655676364899
0	5996	0.07368351519107819
0	6174	0.029158659279346466
0	6212	0.006224201992154121
0	6292	0.013102582655847073
0	6344	0.008512867614626884
0	6436	0.015052849426865578
0	6460	0.00392178213223815
0	6460	0.0
0	6530	0.01141502894461155
0	6564	0.005539324134588242
0	6580	0.0026026135310530663
0	6584	0.0006497233407571912
0	6584	0.0
0	6530	-0.008754012174904346
0	6494	-0.005832163617014885
0	6406	-0.014250396750867367
0	6294	-0.01813412643969059
0	6240	-0.00874805636703968
0	6158	-0.013283941894769669
0	6090	-0.011012145318090916
0	5950	-0.022645415738224983
0	5874	-0.012284615077078342
0	5748	-0.020363526418805122
0	5656	-0.01488464418798685
0	5678	0.0035665263421833515
0	5688	0.001624185242690146
0	5758	0.01145150512456894
0	5810	0.00852337945252657
0	5878	0.01107708364725113
0	5932	0.008756094612181187
0	5898	-0.005501618143171072
0	5924	0.004209344740957022
0	5912	-0.0019453992135822773
0	5900	-0.0019485581433400512
0	5888	-0.0019527011318132281
0	5900	0.001957542961463332
0	5982	0.013415644876658916
0	5912	-0.01148231141269207
0	5806	-0.01743975467979908
0	5828	0.0036340011283755302
0	5820	-0.001326831872574985
0	5862	0.006995258387178183
0	5920	0.00969899632036686
0	5952	0.005371049977838993
0	5948	-0.000673559436108917
0	5832	-0.019593270495533943
0	5688	-0.02440154179930687
0	5532	-0.026525799185037613
0	5500	-0.005463112611323595
0	5542	0.007197285536676645
0	5588	0.007907493971288204
0	5696	0.018604010343551636
0	5768	0.01241536345332861
0	6754	0.17000195384025574
0	6152	-0.10314342379570007
1	4630	-0.2600671947002411
0	4760	0.022348033264279366
0	5310	0.09509319812059402
0	5848	0.09328725188970566
0	6106	0.04474402219057083
0	6174	0.011781148612499237
0	6208	0.005881199613213539
0	6244	0.0062169721350073814
0	6200	-0.007584027945995331
0	6174	-0.004473759792745113
0	6162	-0.002061430597677827
0	6108	-0.009262542240321636
0	6084	-0.004113721661269665
0	6016	-0.011644101701676846
0	6008	-0.0013682541903108358
0	5968	-0.006834257859736681
0	5936	-0.005462802015244961
0	5906	-0.005119220819324255
0	5756	-0.02559814415872097
0	5566	-0.03246050700545311
0	5410	-0.026709889993071556
0	5226	-0.03158003091812134
0	4974	-0.04336553066968918
0	4814	-0.027622083202004433
0	4642	-0.029811425134539604
0	4532	-0.019165098667144775
0	4536	0.0007012131391093135
0	4512	-0.00423599174246192
0	4540	0.004978781100362539
0	4590	0.009008900262415409
0	4660	0.012731902301311493
0	4680	0.003637024899944663
0	4700	0.003638789290562272
0	4734	0.0062089115381240845
0	4812	0.014341223053634167
0	4852	0.0074132648296654224
0	4898	0.008595453575253487
0	4950	0.009796533733606339
0	4958	0.001519506680779159
0	5026	0.013018174096941948
0	5102	0.014657100662589073
0	5240	0.02679681032896042
0	5328	0.017184367403388023
0	5356	0.0054947929456830025
0	5458	0.020103540271520615
0	5500	0.008307947777211666
0	5522	0.004365252796560526
0	5506	-0.0031834461260586977
0	5374	-0.026333289220929146
0	5200	-0.034800466150045395
0	5118	-0.016440333798527718
0	5152	0.0068300520069897175
0	5200	0.009647207334637642
0	5272	0.01444893330335617
0	5276	0.0008002667455002666
0	5946	0.13348031044006348
0	6486	0.10658034682273865
1	4942	-0.3008808195590973
1	3724	-0.23669177293777466
0	4354	0.12307732552289963
0	4824	0.09196092188358307
0	5334	0.09968075901269913
0	5426	0.017905335873365402
0	5460	0.006586168892681599
0	5478	0.003470526309683919
0	5464	-0.002687793457880616
0	5422	-0.008031923323869705
0	5434	0.0022871955297887325
0	5480	0.00874070543795824
0	5522	0.00795434508472681
0	5558	0.006796727888286114
0	5552	-0.0011295464355498552
0	5628	0.014279630035161972
0	5668	0.007501500193029642
0	5708	0.007486897986382246
0	5708	0.0
0	5702	-0.0011198348365724087
0	5738	0.006711493246257305
0	5688	-0.009308097884058952
0	5596	-0.017093593254685402
0	5434	-0.030025947839021683
0	5296	-0.025527821853756905
0	5182	-0.021069493144750595
0	5032	-0.02772608958184719
0	4996	-0.006664115935564041
0	4954	-0.007788258139044046
0	4956	0.00037315755616873503
0	4974	0.003390681929886341
0	4996	0.0041433339938521385
0	5036	0.0074736555106937885
0	5052	0.002976818010210991
0	5134	0.015234650112688541
0	5118	-0.002976301359012723
0	5132	0.0026092466432601213
0	5212	0.01494042482227087
0	5194	-0.0033671713899821043
0	5258	0.01199235487729311
0	5270	0.0022508723195642233
0	5348	0.01464568730443716
0	5490	0.026684707030653954
0	5506	0.003007330233231187
0	5534	0.005264542996883392
0	5560	0.004889056086540222
0	5554	-0.0011287247762084007
0	5492	-0.01167183369398117
0	5394	-0.018474066630005836
0	5206	-0.0355101116001606
0	5046	-0.03031604364514351
0	5042	-0.0007612281478941441
0	5088	0.008790144696831703
0	5082	-0.0011502625420689583
0	5296	0.041118524968624115
0	5300	0.0007685705786570907
0	6208	0.17433376610279083
0	6524	0.060218002647161484
1	4814	-0.3227308392524719
1	3964	-0.1605631709098816
0	4826	0.16385340690612793
0	5384	0.10616707801818848
0	5816	0.08199210464954376
0	5910	0.017753267660737038
0	6016	0.01991208642721176
0	6054	0.0070990887470543385
0	6010	-0.008172362111508846
0	6030	0.003694626735523343
0	6040	0.001838055090047419
0	6024	-0.0029257230926305056
0	6082	0.010556459426879883
0	6108	0.00470900721848011
0	6162	0.009735576808452606
0	6260	0.017597202211618423
0	6360	0.017875656485557556
0	6440	0.014230486005544662
0	6470	0.00530873192474246
0	6564	0.016544634476304054
0	6538	-0.004547574557363987
0	6380	-0.02745216153562069
0	6272	-0.018638042733073235
0	6092	-0.03084586188197136
0	5878	-0.03645366057753563
0	5816	-0.01051417738199234
0	5574	-0.040869634598493576
0	5468	-0.017873603850603104
0	5440	-0.004716875031590462
0	5262	-0.030115725472569466
0	5142	-0.020448271185159683
0	4988	-0.026193149387836456
0	4978	-0.0016910363920032978
0	4894	-0.014192544855177402
0	4890	-0.000677705742418766
0	4910	0.0034063425846397877
0	4908	-0.00034257915103808045
0	4950	0.0072399647906422615
0	4960	0.001734805991873145
0	5016	0.00977426115423441
0	5056	0.0070230476558208466
0	5162	0.01871887594461441
0	5256	0.01668441668152809
0	5220	-0.0064211562275886536
0	5332	0.02008296176791191
0	5414	0.014776904135942459
0	5372	-0.00760731752961874
0	5358	-0.0025509893894195557
0	5314	-0.00807043258100748
0	5206	-0.019950246438384056
0	5022	-0.03427591919898987
0	5114	0.017300821840763092
0	5182	0.012889854609966278
0	5258	0.014506216160953045
0	5386	0.02456185221672058
0	5686	0.05774857848882675
0	6740	0.2030593752861023
0	6288	-0.0864332839846611
1	4526	-0.33518490195274353
0	4664	0.026404744014143944
0	5284	0.11908420920372009
0	5880	0.11437051743268967
0	6122	0.04617556929588318
0	6204	0.015533245168626308
0	6244	0.007515030447393656
0	6256	0.0022355527617037296
0	6208	-0.008868087083101273
0	6260	0.009530792012810707
0	6252	-0.0014546336606144905
0	6240	-0.0021649966947734356
0	6286	0.00823851116001606
0	6174	-0.01991276443004608
0	6246	0.012724745087325573
0	6252	0.001054246909916401
0	6218	-0.005938173271715641
0	6330	0.019460661336779594
0	6280	-0.00864194706082344
0	6270	-0.0017193948151543736
0	6236	-0.005815544631332159
0	6174	-0.010549360886216164
0	5936	-0.04027481749653816
0	5758	-0.02996700257062912
0	5644	-0.01912323758006096
0	5570	-0.01238134503364563
0	5610	0.00668099382892251
0	5604	-0.0010009007528424263
0	5628	0.004005429334938526
0	5760	0.022166991606354713
0	5870	0.018527250736951828
0	6032	0.027081243693828583
0	6044	0.001990842167288065
0	6156	0.018503425642848015
0	6138	-0.002969251712784171
0	6118	-0.003298878436908126
0	6102	-0.0026403511874377728
0	6086	-0.0026424149982631207
0	6080	-0.0009918338619172573
0	6070	-0.001654223189689219
0	6062	-0.0013247665483504534
0	6082	0.0033153933472931385
0	6078	-0.0006636580801568925
0	6046	-0.005315379239618778
0	6076	0.004986701998859644
0	6056	-0.0033276022877544165
0	5936	-0.01998734287917614
0	5794	-0.023688776418566704
0	5614	-0.03011779487133026
0	5414	-0.03358898311853409
0	5374	-0.006750143598765135
0	5400	0.004408971406519413
0	5410	0.0017032100586220622
0	5448	0.006491583772003651
0	6086	0.10918301343917847
0	6698	0.1044701412320137
1	5302	-0.23678140342235565
0	4228	-0.18248340487480164
0	4710	0.08253990113735199
0	5084	0.06438285112380981
0	5440	0.06152286380529404
0	5590	0.02598692663013935
0	5634	0.007642338518053293
0	5618	-0.0027856447268277407
0	5612	-0.0010478885378688574
0	5590	-0.003854059614241123
0	5642	0.009137770161032677
0	5602	-0.007048043888062239
0	5672	0.012369238771498203
0	5630	-0.0074394214898347855
0	5720	0.01598314195871353
0	5772	0.009253437630832195
0	5820	0.00855736993253231
0	5884	0.011427346616983414
0	5892	0.0014297969173640013
0	5822	-0.012524452060461044
0	5774	-0.008600198663771152
0	5572	-0.036227550357580185
0	5368	-0.03663485869765282
0	5192	-0.031653158366680145
0	5020	-0.030974991619586945
0	4866	-0.02779248170554638
0	4860	-0.001086313626728952
0	4870	0.0018165524816140532
0	4768	-0.018593911081552505
0	4774	0.0011025898857042193
0	4766	-0.0014876524219289422
0	4828	0.011567739769816399
0	4816	-0.002230593701824546
0	4830	0.002600651467218995
0	4948	0.021954305469989777
0	4956	0.0014929829631000757
0	5000	0.008243920281529427
0	5110	0.020691730082035065
0	5110	0.0
0	5312	0.03823971003293991
0	5332	0.0037927632220089436
0	5456	0.023561304435133934
0	5478	0.0041841003112494946
0	5588	0.020946264266967773
0	5676	0.016761479899287224
0	5668	-0.0015241967048496008
0	5666	-0.00038130098255351186
0	5552	-0.02175544761121273
0	5470	-0.01568177528679371
0	5402	-0.013039477169513702
0	5448	0.008844566531479359
0	5524	0.014643356204032898
0	5654	0.025055570527911186
0	6000	0.06656406074762344
0	7008	0.19292113184928894
0	6466	-0.10243422538042068
1	4952	-0.2832801043987274
0	4820	-0.024683969095349312
0	5006	0.03479280322790146
0	5556	0.10272949188947678
0	5892	0.062454309314489365
0	5890	-0.0003691762394737452
0	5942	0.009536268189549446
0	5876	-0.01202098187059164
0	5878	0.0003619734779931605
0	5854	-0.0043194470927119255
0	5844	-0.00179012562148273
0	5880	0.006412159185856581
0	5876	-0.0007092198356986046
0	5928	0.00917830690741539
0	5978	0.008793424814939499
0	5962	-0.002803279785439372
0	6110	0.02585393562912941
0	6116	0.0010442895581945777
0	6090	-0.004511434584856033
0	6080	-0.001731022261083126
0	6024	-0.009670734405517578
0	5934	-0.015510288067162037
0	5616	-0.05468302220106125
0	5478	-0.023710524663329124
0	5366	-0.019234951585531235
0	5088	-0.04776632413268089
0	4908	-0.031005259603261948
0	5220	0.05397363379597664
0	5152	-0.011816633865237236
0	5204	0.009134451858699322
0	5174	-0.005309108179062605
0	5080	-0.016613448038697243
0	5114	0.005999929271638393
0	5198	0.014813943766057491
0	5412	0.03781987726688385
0	5430	0.0031901318579912186
0	5408	-0.003909674473106861
0	5464	0.009983479976654053
0	5434	-0.005361419171094894
0	5322	-0.020069045946002007
0	5224	-0.0176163949072361
0	5264	0.007217176724225283
0	5432	0.03042486310005188
0	5478	0.008353005163371563
0	5340	-0.025127457454800606
0	5380	0.007311633788049221
0	5516	0.02494802512228489
0	5498	-0.0033139814622700214
0	5466	-0.005913952365517616
0	5390	-0.01409983728080988
0	5286	-0.019377196207642555
0	5536	0.04679428040981293
0	5496	-0.007505723275244236
0	5448	-0.009013633243739605
0	5730	0.05296504124999046
0	6138	0.07645604014396667
0	7016	0.16345831751823425
1	5698	-0.24220521748065948
1	4526	-0.2147464007139206
0	5488	0.17694447934627533
0	5866	0.0694061890244484
0	6242	0.06874778866767883
0	6482	0.043572984635829926
0	6552	0.012604436837136745
0	6378	-0.031078457832336426
0	6370	-0.0014207236235961318
0	6326	-0.007770739495754242
0	6314	-0.002107901033014059
0	6498	0.032161083072423935
0	6624	0.02188766747713089
0	6518	-0.018275652080774307
0	6496	-0.0037650601007044315
0	6492	-0.0006797788664698601
0	6694	0.03412392735481262
0	6692	-0.00033556297421455383
0	6706	0.002331312745809555
0	6468	-0.03934274613857269
0	6748	0.04604404792189598
0	6614	-0.02188541181385517
0	6544	-0.011361668817698956
0	6358	-0.030002258718013763
0	6174	-0.029509564861655235
0	6052	-0.01949961669743061
0	5964	-0.014023754745721817
0	5888	-0.012078318744897842
0	5812	-0.012068217620253563
0	5822	0.0015906681073829532
0	5794	-0.004482246935367584
0	5768	-0.004159955307841301
0	5704	-0.010172508656978607
0	5634	-0.011113463900983334
0	5766	0.02098257839679718
0	5690	-0.012111424468457699
0	5604	-0.013762935996055603
0	5690	0.01383288949728012
0	5562	-0.02066471427679062
0	5560	-0.0003242962702643126
0	5502	-0.009443691000342369
0	5550	0.00785006396472454
0	5534	-0.0026302810292690992
0	5536	0.0003307607548777014
0	5510	-0.004323293920606375
0	5496	-0.0023407195694744587
0	5462	-0.005716335028409958
0	5560	0.01659104786813259
0	5398	-0.027602342888712883
0	5084	-0.05390125885605812
0	5264	0.031145459040999413
0	5104	-0.027923861518502235
0	5076	-0.004929982591420412
0	5044	-0.005683230701833963
0	4984	-0.010739601217210293
0	5092	0.01946951635181904
0	5350	0.04678037390112877
0	6036	0.12484834343194962
0	5682	-0.06436831504106522
1	4090	-0.2897038757801056
0	4188	0.018022878095507622
0	4652	0.08618127554655075
0	5114	0.08640682697296143
0	5350	0.04430150240659714
0	5408	0.010907039977610111
0	5414	0.0011308521497994661
0	5354	-0.011328164488077164
0	5346	-0.0015128020895645022
0	5408	0.0117496931925416
0	5392	-0.003035131609067321
0	5382	-0.001898974529467523
0	5432	0.009502090513706207
0	5460	0.005325151141732931
0	5440	-0.0038054645992815495
0	5438	-0.0003807783068623394
0	5520	0.015619047917425632
0	5524	0.0007617886876687407
0	5516	-0.0015229779528453946
0	5590	0.014091480523347855
0	5600	0.0019019362516701221
0	5534	-0.012511848472058773
0	5320	-0.040499620139598846
0	5154	-0.03137284517288208
0	4964	-0.03589104488492012
0	4902	-0.011717716231942177
0	4784	-0.022312987595796585
0	4776	-0.001515687326900661
0	4756	-0.003803004277870059
0	4790	0.006517988163977861
0	4818	0.0053985267877578735
0	4820	0.0003838133125100285
0	4932	0.021407000720500946
0	4950	0.003434284357354045
0	4916	-0.006493754684925079
0	4994	0.014938712120056152
0	5018	0.004608707968145609
0	5058	0.007700699381530285
0	5074	0.003086141776293516
0	5082	0.0015457742847502232
0	5154	0.01394124049693346
0	5200	0.008920606225728989
0	5182	-0.0034947837702929974
0	5302	0.023336313664913177
0	5362	0.0116801206022501
0	5304	-0.011296500451862812
0	5362	0.0113063370808959
0	5372	0.0019513717852532864
0	5436	0.012501140125095844
0	5394	-0.008208148181438446
0	5280	-0.02230774238705635
0	5162	-0.02313876710832119
0	5046	-0.02280202880501747
0	4986	-0.01181536540389061
0	5058	0.014194091781973839
0	5106	0.009456885978579521
0	5100	-0.0011805291287600994
0	5414	0.061653248965740204
0	6202	0.15407878160476685
0	6016	-0.03602928668260574
1	4630	-0.26636770367622375
0	4060	-0.10967724770307541
0	4464	0.07811694592237473
0	5234	0.14933671057224274
0	5580	0.06698156893253326
0	5642	0.011951269581913948
0	5580	-0.011901714839041233
0	5628	0.009181213565170765
0	5798	0.03239905461668968
0	5784	-0.002655941527336836
0	5760	-0.004532920196652412
0	5736	-0.004515692126005888
0	5748	0.0022502813953906298
0	5740	-0.0014948986936360598
0	5758	0.003354370594024658
0	5672	-0.015987111255526543
0	5990	0.058980636298656464
0	5982	-0.001478050951845944
0	6016	0.0062582059763371944
0	5988	-0.005135541316121817
0	5976	-0.0021929824724793434
0	5928	-0.00873489584773779
0	5810	-0.021373972296714783
0	5544	-0.04796076565980911
0	5262	-0.05067567899823189
0	5284	0.003948596306145191
0	5258	-0.004661559127271175
0	5134	-0.02221107855439186
0	5096	-0.006818018388003111
0	5094	-0.0003612325235735625
0	5040	-0.009807719849050045
0	5050	0.0018117474392056465
0	5370	0.05763135105371475
0	5256	-0.020420104265213013
0	5432	0.03152163326740265
0	5392	-0.007170343771576881
0	5114	-0.04990844056010246
0	5494	0.0684109479188919
0	5502	0.0014413894386962056
0	5606	0.01877143234014511
0	4952	-0.11816999316215515
0	5702	0.13617876172065735
0	5774	0.01307585183531046
0	5618	-0.028326554223895073
0	5610	-0.0014537172392010689
0	5678	0.012367683462798595
0	5560	-0.02146078832447529
0	5518	-0.007658550050109625
0	5592	0.013531799428164959
0	5656	0.01173350214958191
0	5636	-0.003674174193292856
0	5806	0.03129563853144646
0	5786	-0.0036845984868705273
0	5856	0.012897994369268417
0	5866	0.001839046599343419
0	5794	-0.013192289508879185
0	5798	0.000730629195459187
0	5718	-0.01456469763070345
0	5414	-0.05515039339661598
0	5508	0.01702035218477249
0	5426	-0.01481053326278925
0	5374	-0.009370269253849983
0	5550	0.031653158366680145
0	5544	-0.0010779218282550573
0	5808	0.04734690114855766
0	6432	0.11165986955165863
0	6020	-0.07326962798833847
1	4574	-0.2557813227176666
0	3970	-0.10742361098527908
0	4458	0.0875881016254425
0	5118	0.11927855014801025
0	5660	0.09785513579845428
0	5594	-0.011918951757252216
0	5552	-0.007593014743179083
0	5534	-0.003255443647503853
0	5496	-0.0068757543340325356
0	5524	0.0050719124265015125
0	5530	0.0010870747501030564
0	5446	-0.015217943117022514
0	5356	-0.01631932705640793
0	5462	0.01925545558333397
0	5406	-0.010183422826230526
0	5486	0.014583106152713299
0	5388	-0.017896929755806923
0	5436	0.008790886029601097
0	5468	0.005876015871763229
0	5448	-0.0036798526998609304
0	5458	0.0018438843544572592
0	5404	-0.009972913190722466
0	5404	0.0
0	5228	-0.0325271375477314
0	4960	-0.049590446054935455
0	4808	-0.02819792926311493
0	4648	-0.02981884963810444
0	4752	0.019490741193294525
0	4744	-0.0015092442044988275
0	4774	0.005720387678593397
0	4850	0.014607331715524197
0	4956	0.02033742144703865
0	4970	0.0026692429091781378
0	4992	0.004180919844657183
0	5022	0.0057058087550103664
0	5070	0.009166370145976543
0	5036	-0.006514574401080608
0	5094	0.011149843223392963
0	5088	-0.0011566933244466782
0	5118	0.005798669997602701
0	5152	0.006589062046259642
0	5278	0.024478059262037277
0	5332	0.010502022691071033
0	5302	-0.005835364572703838
0	5340	0.0073991380631923676
0	5302	-0.007402309216558933
0	5256	-0.008971408940851688
0	5320	0.012492679990828037
0	5310	-0.0019534556195139885
0	5438	0.0250299833714962
0	5432	-0.0011733570136129856
0	5374	-0.011344374157488346
0	5436	0.012129116803407669
0	5460	0.004694162402302027
0	5562	0.01992005854845047
0	5484	-0.015173523686826229
0	5538	0.010458899661898613
0	5736	0.03813020884990692
0	5686	-0.009568401612341404
0	5578	-0.020544297993183136
0	5446	-0.024982335045933723
0	5448	0.0003771023475565016
0	5368	-0.015037594363093376
0	5358	-0.0018750234739854932
0	5316	-0.007857125252485275
0	5302	-0.0026142490096390247
0	5500	0.03691963478922844
0	5618	0.021939337253570557
0	6288	0.12416759133338928
0	6230	-0.010669740848243237
1	4848	-0.2525123357772827
0	4164	-0.1252089887857437
0	4678	0.09473373740911484
0	5228	0.10177772492170334
0	5618	0.07220260798931122
0	5770	0.028092309832572937
0	5772	0.0003685730043798685
0	5730	-0.007715577259659767
0	5774	0.00806274265050888
0	5782	0.0014618101995438337
0	5762	-0.00364688434638083
0	5836	0.013466461561620235
0	5796	-0.007258825469762087
0	5768	-0.005070136860013008
0	5808	0.007229612674564123
0	5878	0.012633098289370537
0	5850	-0.005041290540248156
0	5798	-0.009344899095594883
0	5952	0.027665002271533012
0	6014	0.011120145209133625
0	5962	-0.009302325546741486
0	5916	-0.008203737437725067
0	5816	-0.017784733325242996
0	5770	-0.008159307762980461
0	5498	-0.04812909662723541
0	5402	-0.01696852594614029
0	5178	-0.0395699143409729
0	5252	0.013097035698592663
0	5216	-0.00638531893491745
0	5082	-0.023919174447655678
0	5236	0.027678262442350388
0	5182	-0.009682856500148773
0	5322	0.024951878935098648
0	5268	-0.009587614797055721
0	5304	0.006390229798853397
0	5440	0.024185804650187492
0	5354	-0.0153239406645298
0	5410	0.010003214702010155
0	5416	0.0010738191194832325
0	5400	-0.0028696462977677584
0	5458	0.010426279157400131
0	5444	-0.002521280664950609
0	5386	-0.010469944216310978
0	5356	-0.005428881850093603
0	5518	0.029388999566435814
0	5480	-0.006905826274305582
0	5482	0.00036434296634979546
0	5506	0.0043819076381623745
0	5502	-0.0007316180854104459
0	5456	-0.00843675434589386
0	5428	-0.005152994766831398
0	5512	0.015509792603552341
0	5446	-0.012216641567647457
0	5574	0.023747093975543976
0	5606	0.005943977739661932
0	5668	0.01150876097381115
0	5826	0.029280586168169975
0	5754	-0.013289854861795902
0	5680	-0.013616958633065224
0	5624	-0.010275480337440968
0	5572	-0.009509991854429245
0	5452	-0.021901274099946022
0	5382	-0.012754792347550392
0	5470	0.0160287544131279
0	5574	0.018919870257377625
0	5582	0.0014529955806210637
0	5630	0.008710484951734543
0	6282	0.1181202232837677
0	6480	0.03568296134471893
1	5490	-0.1772816777229309
0	4404	-0.19436821341514587
0	4838	0.07816720753908157
0	5364	0.09508315473794937
0	5582	0.03941231220960617
0	5690	0.019498808309435844
0	5628	-0.011182185262441635
0	5610	-0.003243554849177599
0	5506	-0.01872614212334156
0	5388	-0.02124696783721447
0	5652	0.04756814241409302
0	5556	-0.01727716624736786
0	5476	-0.014386591501533985
0	5478	0.0003597424365580082
0	5388	-0.016185304149985313
0	5518	0.023404868319630623
0	5594	0.01369007583707571
0	5564	-0.005406379699707031
0	5726	0.029240470379590988
0	5826	0.018052713945508003
0	5654	-0.031023411080241203
0	5874	0.039673950523138046
0	5884	0.0018000936834141612
0	5726	-0.028367945924401283
0	5498	-0.04085191711783409
0	5292	-0.03690389171242714
0	5354	0.011125733144581318
0	5248	-0.019047390669584274
0	5300	0.00936543196439743
0	5266	-0.0061598666943609715
0	5214	-0.009490552358329296
0	5248	0.006215798202902079
0	5396	0.026918552815914154
0	5518	0.02211480401456356
0	5408	-0.019921040162444115
0	5632	0.04060913622379303
0	5744	0.020311687141656876
0	5692	-0.009423818439245224
0	5668	-0.004347301088273525
0	5734	0.011943395249545574
0	5740	0.001083501847460866
0	5684	-0.010107330046594143
0	5692	0.0014427932910621166
0	5666	-0.004682997241616249
0	5658	-0.0014392976881936193
0	5646	-0.0021554562263190746
0	5646	0.0
0	5606	-0.007177119608968496
0	5628	0.003946424461901188
0	5618	-0.0017948810709640384
0	5606	-0.0021565407514572144
0	5570	-0.006471483502537012
0	5540	-0.005402744747698307
0	5534	-0.0010827849619090557
0	5542	0.0014453826006501913
0	5532	-0.0018062496092170477
0	5530	-0.00036072864895686507
0	5358	-0.03098987229168415
0	5228	-0.023407116532325745
0	5046	-0.032784126698970795
0	4970	-0.013708184473216534
0	4788	-0.032875724136829376
0	4746	-0.007607777137309313
0	4724	-0.00400072755292058
0	4714	-0.001827307278290391
0	4748	0.006239219103008509
0	4790	0.007749173324555159
0	5466	0.1254608929157257
0	5656	0.035312045365571976
1	4656	-0.18586668372154236
0	3236	-0.26570531725883484
0	3848	0.11633212119340897
0	4410	0.10808523744344711
0	4904	0.09579460322856903
0	5042	0.026892894878983498
0	5180	0.02700093947350979
0	5226	0.009027750231325626
0	5290	0.01259495411068201
0	5308	0.0035496889613568783
0	5308	0.0
0	5370	0.012277551926672459
0	5502	0.0261800866574049
0	5562	0.011905391700565815
0	5624	0.01230044849216938
0	5756	0.026172474026679993
0	5914	0.031283412128686905
0	6034	0.023699801415205002
0	6174	0.027558332309126854
0	6282	0.02114606462419033
0	6448	0.03228022903203964
0	6482	0.0065520694479346275
0	6698	0.04122452065348625
0	6674	-0.004525512456893921
0	6630	-0.00819743424654007
0	6470	-0.02946014143526554
0	6480	0.0018216263270005584
0	6636	0.028121618553996086
0	6686	0.008914456702768803
0	6820	0.02371877431869507
0	6962	0.0249633751809597
0	7098	0.023589814081788063
0	7166	0.011537287384271622
0	7344	0.02964426949620247
0	7348	0.0006554869469255209
0	7510	0.026197483763098717
0	7390	-0.01915076933801174
0	7296	-0.0148271219804883
0	7304	0.001248296583071351
0	7200	-0.016059625893831253
0	7042	-0.024162963032722473
0	6854	-0.028498953208327293
0	6752	-0.015347114764153957
0	6560	-0.02870870567858219
0	6352	-0.030947161838412285
0	6262	-0.013342426158487797
0	6158	-0.015379458665847778
0	6370	0.03131277486681938
0	5988	-0.05632888898253441
0	6054	0.009741122834384441
0	5626	-0.06324063986539841
0	5574	-0.007714675739407539
0	5650	0.011326153762638569
0	5658	0.0011984659358859062
0	5724	0.009937763214111328
0	5698	-0.00393276009708643
0	5854	0.023688767105340958
0	5876	0.0033513426315039396
0	5842	-0.005199412815272808
0	5484	-0.05498331040143967
0	4926	-0.08629044145345688
0	5416	0.07657845318317413
0	5566	0.023649606853723526
0	5174	-0.062328413128852844
1	4186	-0.15892080962657928
0	3818	-0.060214024037122726
0	4618	0.13359011709690094
0	4992	0.06343211978673935
0	5954	0.16531293094158173
0	5340	-0.10633385181427002
0	2276	-0.5363895297050476
0	2408	0.02376922219991684
0	550	-0.34374305605888367
0	3200	0.5097656846046448
0	3896	0.13683368265628815
0	5380	0.2965271770954132
0	3492	-0.3794822096824646
0	5926	0.49812400341033936
0	4466	-0.2997003197669983
0	3730	-0.15267176926136017
0	3656	-0.015600842423737049
0	5614	0.41858479380607605
0	5738	0.02650138922035694
0	5954	0.046134788542985916
1	4600	-0.28858861327171326
0	4876	0.05929957702755928
0	6070	0.25805431604385376
1	5242	-0.17867419123649597
0	4586	-0.1422068029642105
0	4612	0.0056878672912716866
0	5372	0.1673247069120407
1	3832	-0.3379465937614441
0	4618	0.17450638115406036
1	3592	-0.22940020263195038
0	5638	0.46291688084602356
0	5214	-0.09489279240369797
1	4196	-0.2254839688539505
1	3070	-0.25018516182899475
0	4110	0.2344137281179428
1	2892	-0.2783915102481842
0	4126	0.2874089777469635
0	6310	0.5014694929122925
1	4454	-0.4137992560863495
0	5010	0.12046626955270767
1	3944	-0.22798562049865723
0	4374	0.09193272143602371
0	4444	0.015073862858116627
0	6046	0.3426347076892853
1	5182	-0.18463380634784698
0	5482	0.06378364562988281
0	5662	0.03780083358287811
1	4168	-0.309402197599411
0	5746	0.33009329438209534
0	6074	0.06860872358083725
0	5568	-0.10575301945209503
1	4796	-0.1602657288312912
0	5600	0.16700130701065063
0	5994	0.08210614323616028
0	7200	0.2500138282775879
1	6092	-0.22562208771705627
0	5732	-0.07257771492004395
1	4976	-0.1520453691482544
0	6174	0.23910583555698395
0	6118	-0.011062383651733398
0	5670	-0.0870511457324028
0	5612	-0.011267677880823612
0	5152	-0.08913461863994598
0	5324	0.033124059438705444
0	5452	0.024298876523971558
0	5474	0.004141202196478844
0	4764	-0.1315172016620636
0	5754	0.18266357481479645
0	6136	0.07072415202856064
0	6530	0.07219643145799637
0	5938	-0.10748002678155899
1	4492	-0.2593970000743866
0	4198	-0.05270328372716904
0	4582	0.06893827766180038
0	4896	0.056869637221097946
0	5244	0.0631365031003952
0	5444	0.03633765131235123
0	5472	0.005093996413052082
0	5562	0.016245096921920776
0	5396	-0.029996385797858238
0	5632	0.042820338159799576
0	5858	0.04099005088210106
0	5894	0.00648773368448019
0	5354	-0.09714443236589432
0	5702	0.062845379114151
0	5838	0.024783749133348465
0	5974	0.024822046980261803
0	6130	0.02843048982322216
0	6296	0.03004235029220581
0	6362	0.011935763992369175
0	6480	0.021308356896042824
0	6624	0.025877250358462334
0	6650	0.004644128493964672
0	6412	-0.042135827243328094
0	6368	-0.0077401199378073215
0	6088	-0.04899216070771217
0	6062	-0.004533038940280676
0	5900	-0.028032856062054634
0	5570	-0.057055916637182236
0	5534	-0.006244651973247528
0	5238	-0.051642317324876785
0	4838	-0.07007217407226562
0	4946	0.018881339579820633
0	5432	0.08459725975990295
0	5446	0.0024249982088804245
0	5152	-0.05076375976204872
0	5018	-0.023149481043219566
0	5256	0.04121735692024231
0	5196	-0.010403902269899845
0	5116	-0.01390127744525671
0	5234	0.020537693053483963
0	5272	0.006629140581935644
0	5254	-0.003150855889543891
0	5280	0.004568296018987894
0	5250	-0.005273396614938974
0	5388	0.024322038516402245
0	5342	-0.008128835819661617
0	5274	-0.01206144317984581
0	5596	0.0574050098657608
0	5408	-0.03365597128868103
0	5248	-0.028807375580072403
0	5248	0.0
0	5302	0.009877084754407406
0	5300	-0.00036884943256154656
0	5312	0.002228329423815012
0	5442	0.02429906465113163
0	5332	-0.02064383774995804
0	5020	-0.05882205069065094
0	4872	-0.02805793657898903
0	4820	-0.009901870042085648
0	5028	0.03978779911994934
0	5054	0.004980143159627914
0	5292	0.045524682849645615
0	5306	0.002672027563676238
0	4952	-0.06761833280324936
0	4480	-0.0904422476887703
0	4732	0.04849511384963989
0	5114	0.07364754378795624
0	4962	-0.029331550002098083
0	4764	-0.03826579824090004
0	5700	0.1813039928674698
0	6502	0.15488207340240479
0	6024	-0.09158609062433243
1	3802	-0.42365774512290955
0	4036	0.04503868892788887
0	4540	0.0977678894996643
0	5152	0.11937271058559418
0	5520	0.07186844944953918
0	5906	0.07526323199272156
0	5888	-0.0035026269033551216
0	5982	0.018234724178910255
0	6380	0.07684188336133957
0	6018	-0.06938587129116058
0	6116	0.01869848370552063
0	6210	0.01784268021583557
0	6272	0.01170208677649498
0	6340	0.012767874635756016
0	6310	-0.0055975718423724174
0	6446	0.02517368458211422
0	6490	0.008066093549132347
0	6462	-0.00508111622184515
0	6516	0.009715026244521141
0	6494	-0.0039235735312104225
0	6476	-0.0031874203123152256
0	6404	-0.012662234716117382
0	6278	-0.021971888840198517
0	6346	0.011735199019312859
0	6174	-0.029410088434815407
0	5950	-0.03807149827480316
0	5714	-0.039887771010398865
0	5910	0.03295077756047249
0	5892	-0.0030225347727537155
0	5678	-0.036057692021131516
0	5740	0.01046696212142706
0	5634	-0.017702070996165276
0	5742	0.017877046018838882
0	5752	0.0016443761996924877
0	5820	0.01114510465413332
0	5676	-0.023562779650092125
0	5692	0.0026213752571493387
0	5760	0.01115278247743845
0	5618	-0.023317933082580566
0	5802	0.030341338366270065
0	5826	0.003962270449846983
0	5688	-0.02281947247684002
0	5558	-0.02155863307416439
0	5614	0.009323595091700554
0	5636	0.00367765873670578
0	5674	0.006376266945153475
0	5666	-0.0013481933856382966
0	5680	0.0023703102488070726
0	5662	-0.003061050781980157
0	5714	0.00888605322688818
0	5788	0.012701972387731075
0	5480	-0.0530766062438488
0	5614	0.02321498654782772
0	5668	0.009391304105520248
0	5634	-0.0059363762848079205
0	5742	0.0189161729067564
0	5996	0.04454212635755539
0	5710	-0.050071194767951965
0	5772	0.010867279022932053
0	5440	-0.0582333542406559
0	5466	0.004566798452287912
0	5564	0.0172409750521183
0	5484	-0.014080045744776726
0	5438	-0.008108298294246197
0	5516	0.013774266466498375
0	5632	0.020521529018878937
0	5982	0.06193447858095169
0	6916	0.16499435901641846
0	6336	-0.10176628828048706
1	4822	-0.26453423500061035
0	4674	-0.026007801294326782
0	4910	0.041753653436899185
0	5410	0.0888688787817955
0	5974	0.10033206641674042
0	6022	0.008520709350705147
0	5980	-0.007438631262630224
0	5962	-0.0031822361052036285
0	5980	0.00317669496871531
0	5894	-0.01515080314129591
0	5908	0.002463054144755006
0	5958	0.008786625228822231
0	5856	-0.017906883731484413
0	5790	-0.011561368592083454
0	5804	0.002449893858283758
0	5822	0.003147366689518094
0	5892	0.012226361781358719
0	5856	-0.006282357033342123
0	5966	0.01921173743903637
0	5944	-0.0038366292137652636
0	5898	-0.008014030754566193
0	5632	-0.04621906951069832
0	5930	0.05172952637076378
0	5820	-0.019054438918828964
0	5542	-0.048062514513731
0	5434	-0.018660584464669228
0	5348	-0.014866375364363194
0	5172	-0.03047407977283001
0	5092	-0.013916916213929653
0	5356	0.046416766941547394
0	5380	0.0042440821416676044
0	5238	-0.025028495118021965
0	4674	-0.0990806296467781
0	5892	0.21426811814308167
0	5722	-0.029821772128343582
0	5606	-0.020379003137350082
0	5572	-0.00598774291574955
0	5600	0.004942920990288258
0	5564	-0.006368750706315041
0	5532	-0.005675033200532198
0	5650	0.020971564576029778
0	5532	-0.021003665402531624
0	5514	-0.0032120677642524242
0	5550	0.006437230855226517
0	5528	-0.00393949868157506
0	5566	0.0068158176727592945
0	5538	-0.005029879976063967
0	5600	0.011161250062286854
0	5638	0.0068512908183038235
0	5644	0.0010839194292202592
0	5496	-0.026785068213939667
0	5418	-0.0141507713124156
0	5850	0.07847506552934647
0	5822	-0.005088811740279198
0	5944	0.022172411903738976
0	5936	-0.0014503963757306337
0	5754	-0.03289671614766121
0	5732	-0.003966822754591703
0	5480	-0.04528573155403137
0	5506	0.0046615032479166985
0	5540	0.0060903518460690975
0	5720	0.0322122685611248
0	5570	-0.026766594499349594
0	5494	-0.01348984707146883
0	5552	0.010319182649254799
0	5616	0.011398176662623882
0	6238	0.11076945066452026
0	6542	0.05392492935061455
1	5462	-0.19051426649093628
1	4248	-0.21428066492080688
0	4898	0.11560351401567459
0	5354	0.08146348595619202
0	5758	0.0722503736615181
0	5854	0.01714346930384636
0	5808	-0.008199741132557392
0	5820	0.002135510090738535
0	5854	0.006041508633643389
0	6016	0.028732234612107277
0	5960	-0.009907763451337814
0	5912	-0.008476272225379944
0	5830	-0.014457492157816887
0	5518	-0.05490122735500336
0	6152	0.1114967092871666
0	6174	0.0038621334824711084
0	6034	-0.024526692926883698
0	6066	0.005603156052529812
0	5968	-0.017146656289696693
0	5882	-0.01502830907702446
0	5900	0.0031427142675966024
0	6100	0.03483390063047409
0	5842	-0.04478130117058754
0	5518	-0.056138891726732254
0	5788	0.04683705419301987
0	5506	-0.04885711520910263
0	5208	-0.0516255684196949
0	5098	-0.019094349816441536
0	5308	0.03656243532896042
0	5110	-0.0346602238714695
0	4816	-0.051898837089538574
0	5510	0.12297695875167847
0	5512	0.00035177823156118393
0	5282	-0.04030938819050789
0	5468	0.03261174261569977
0	5348	-0.021075556054711342
0	5340	-0.0014092115452513099
0	5526	0.03285444900393486
0	5708	0.03220365196466446
0	5818	0.019480520859360695
0	5598	-0.03900662809610367
0	5754	0.027718549594283104
0	5834	0.014227955602109432
0	5798	-0.006402428261935711
0	5664	-0.02379176765680313
0	5774	0.01958712749183178
0	5850	0.013565130531787872
0	5834	-0.002858946565538645
0	5882	0.008588708005845547
0	5848	-0.006086790468543768
0	5836	-0.0021487148478627205
0	5892	0.010031168349087238
0	5966	0.013271955773234367
0	5912	-0.0096777668222785
0	5956	0.007867070846259594
0	5956	0.0
0	5934	-0.003919100388884544
0	5894	-0.007095050066709518
0	5802	-0.016242172569036484
0	5658	-0.025348840281367302
0	5638	-0.003509387606754899
0	5636	-0.0003492595860734582
0	5622	-0.0024430251214653254
0	5642	0.003487804438918829
0	5800	0.027496114373207092
0	6286	0.08441407978534698
0	6630	0.05942714959383011
0	5962	-0.11454831808805466
1	4342	-0.27710622549057007
0	4872	0.0913698598742485
0	5410	0.09325598180294037
0	5710	0.05205802991986275
0	5736	0.004512844141572714
0	5678	-0.01007282454520464
0	5642	-0.006256444379687309
0	5594	-0.008342989720404148
0	5494	-0.017399372532963753
0	5428	-0.011507346294820309
0	5426	-0.0003495322307571769
0	5430	0.0007009264081716537
0	5464	0.005972456652671099
0	5474	0.0017604394815862179
0	5536	0.010941562242805958
0	5570	0.006015427876263857
0	5620	0.00886409543454647
0	5628	0.0014210769440978765
0	5682	0.009610935114324093
0	5698	0.0028519481420516968
0	5662	-0.006424365099519491
0	5610	-0.009287373162806034
0	5532	-0.01393504161387682
0	5396	-0.024312341585755348
0	5220	-0.03150809183716774
0	5046	-0.031224951148033142
0	4938	-0.019450347870588303
0	4892	-0.008327499963343143
0	4896	0.0007302734884433448
0	4906	0.0018451545620337129
0	4954	0.008914642035961151
0	5006	0.00962107814848423
0	5088	0.01515917107462883
0	5164	0.014077898114919662
0	5182	0.0033455174416303635
0	5222	0.0074600884690880775
0	5246	0.004488778300583363
0	5230	-0.002999924821779132
0	5230	0.0
0	5232	0.0003764682332985103
0	5234	0.0003769317700061947
0	5258	0.004528643563389778
0	5254	-0.0007555913762189448
0	5254	0.0
0	5268	0.0026517496444284916
0	5298	0.005691951606422663
0	5280	-0.0034210560843348503
0	5314	0.006475943606346846
0	5370	0.010687566362321377
0	5344	-0.004971953108906746
0	5346	0.0003833229129668325
0	5416	0.01344344113022089
0	5512	0.01845964603126049
0	5486	-0.005000127945095301
0	5562	0.014607331715524197
0	5620	0.01112332846969366
0	5652	0.006114571820944548
0	5590	-0.011793349869549274
0	5486	-0.019695227965712547
0	5328	-0.029810570180416107
0	5232	-0.01806480623781681
0	5266	0.006386815570294857
0	5282	0.0030006752349436283
0	5376	0.017607612535357475
0	5514	0.02581530250608921
0	5948	0.08101952821016312
0	6586	0.11856679618358612
0	5786	-0.14744912087917328
1	4190	-0.2931596040725708
0	4328	0.02551083266735077
0	4920	0.11005080491304398
0	5572	0.12144090235233307
0	5764	0.03569215536117554
0	5806	0.007783062290400267
0	5832	0.004801713861525059
0	5870	0.006993607617914677
0	5880	0.0018339874222874641
0	5868	-0.002192741958424449
0	5882	0.0025495956651866436
0	5862	-0.0036309941206127405
0	5856	-0.0010858942987397313
0	5848	-0.0014434180920943618
0	5856	0.0014396775513887405
0	5872	0.002873425604775548
0	5918	0.008242053911089897
0	5950	0.005721437279134989
0	5972	0.003925767261534929
0	5956	-0.0028496794402599335
0	5928	-0.004976126365363598
0	5864	-0.011344299651682377
0	5822	-0.007421193644404411
0	5676	-0.025708148255944252
0	5498	-0.031267568469047546
0	5326	-0.03017543815076351
0	5152	-0.030535243451595306
0	5072	-0.014068985357880592
0	5038	-0.006010181736201048
0	5038	0.0
0	5052	0.002508720848709345
0	5064	0.0021393171045929193
0	5106	0.007455003913491964
0	5152	0.00815602857619524
0	5170	0.003199431113898754
0	5196	0.0046377223916351795
0	5218	0.0039385114796459675
0	5248	0.005390448030084372
0	5266	0.0032463630195707083
0	5278	0.0021722600795328617
0	5320	0.007630074862390757
0	5316	-0.0007291553192771971
0	5358	0.007681615184992552
0	5388	0.005503577180206776
0	5380	-0.0014717606827616692
0	5378	-0.00036901733255945146
0	5404	0.004811844322830439
0	5442	0.007055066525936127
0	5478	0.00670482637360692
0	5488	0.001868181163445115
0	5522	0.006370381452143192
0	5596	0.013900194317102432
0	5650	0.010160434059798717
0	5600	-0.009417969733476639
0	5614	0.0026382904034107924
0	5668	0.010168853215873241
0	5666	-0.0003758173843380064
0	5556	-0.020603623241186142
0	5426	-0.024276377633213997
0	5286	-0.026080802083015442
0	5204	-0.01525240857154131
0	5240	0.006689874920994043
0	5272	0.005940079689025879
0	5284	0.0022252441849559546
0	5498	0.03965116664767265
0	5866	0.06804733723402023
0	6710	0.15542323887348175
0	5980	-0.13321004807949066
1	4126	-0.33681735396385193
0	4326	0.0365867018699646
0	4844	0.09531286358833313
0	5482	0.11773679405450821
0	5720	0.04387582093477249
0	5720	0.0
0	5736	0.0029371092095971107
0	5688	-0.008792174980044365
0	5736	0.008775564841926098
0	5712	-0.004378922749310732
0	5716	0.000728623999748379
0	5762	0.0083670848980546
0	5728	-0.006174109876155853
0	5750	0.003990036901086569
0	5748	-0.00036239324253983796
0	5778	0.005432683043181896
0	5820	0.007597592659294605
0	5800	-0.003613413078710437
0	5834	0.006137922406196594
0	5816	-0.0032462067902088165
0	5790	-0.004681647755205631
0	5772	-0.0032340751495212317
0	5680	-0.01648174598813057
0	5574	-0.01893601194024086
0	5440	-0.023890461772680283
0	5310	-0.02315419539809227
0	5134	-0.03134237974882126
0	5058	-0.013563516549766064
0	5036	-0.00394524447619915
0	5006	-0.005434257909655571
0	5018	0.002186562167480588
0	5044	0.004712023306638002
0	5118	0.013353222981095314
0	5164	0.008286993950605392
0	5192	0.005053908564150333
0	5244	0.009415741078555584
0	5210	-0.00617418484762311
0	5268	0.010566074401140213
0	5258	-0.001826395047828555
0	5344	0.01575283892452717
0	5348	0.0007343401666730642
0	5344	-0.0007359976880252361
0	5398	0.009961506351828575
0	5372	-0.004806033335626125
0	5374	0.00037055794382467866
0	5366	-0.0014856633497402072
0	5400	0.006330213509500027
0	5386	-0.002613370306789875
0	5406	0.0037430287338793278
0	5498	0.017264027148485184
0	5550	0.009777376428246498
0	5570	0.003766194684430957
0	5578	0.0015083904145285487
0	5552	-0.004905413836240768
0	5586	0.006415659561753273
0	5528	-0.010934318415820599
0	5426	-0.01920301280915737
0	5294	-0.024805502966046333
0	5202	-0.01726316288113594
0	5248	0.008622628636658192
0	5290	0.007860948331654072
0	5378	0.01644265651702881
0	5472	0.01752728410065174
0	5902	0.08000198751688004
0	6734	0.1540892869234085
0	5996	-0.13539130985736847
1	4468	-0.279039204120636
0	4390	-0.014308775775134563
0	4718	0.060495030134916306
0	5168	0.08327268064022064
0	5584	0.0770646259188652
0	5676	0.017018338665366173
0	5686	0.0018460402498021722
0	5684	-0.0003685549017973244
0	5678	-0.0011035497300326824
0	5702	0.004405987448990345
0	5708	0.0010992366587743163
0	5714	0.0010971729643642902
0	5692	-0.004014940466731787
0	5732	0.007287213113158941
0	5744	0.0021830617915838957
0	5774	0.005451241508126259
0	5792	0.003266708692535758
0	5806	0.0025374884717166424
0	5806	0.0
0	5820	0.0025302423164248466
0	5824	0.0007216569501906633
0	5768	-0.01007907185703516
0	5670	-0.017588360235095024
0	5570	-0.017897197976708412
0	5408	-0.028937872499227524
0	5294	-0.02034939080476761
0	5182	-0.02000238001346588
0	5110	-0.012880911119282246
0	5096	-0.0025165071710944176
0	5128	0.0058090281672775745
0	5182	0.009854493662714958
0	5246	0.011628893204033375
0	5262	0.0028922283090651035
0	5258	-0.0007206947193481028
0	5268	0.0018007634207606316
0	5312	0.007938417606055737
0	5386	0.013380264863371849
0	5412	0.004709689877927303
0	5398	-0.002540158573538065
0	5362	-0.006542916875332594
0	5362	0.0
0	5394	0.005840197671204805
0	5416	0.0040229675360023975
0	5418	0.0003663406241685152
0	5422	0.0007340886513702571
0	5496	0.013607443310320377
0	5506	0.0018419825937598944
0	5570	0.011809425428509712
0	5660	0.016631146892905235
0	5634	-0.004808878060430288
0	5644	0.0018516917480155826
0	5660	0.002966002095490694
0	5674	0.0025969850830733776
0	5620	-0.01001669466495514
0	5530	-0.016689332202076912
0	5398	-0.024459240958094597
0	5402	0.0007407132652588189
0	5476	0.013684612698853016
0	5464	-0.0022141309455037117
0	5532	0.012518409639596939
0	5692	0.029382238164544106
0	6356	0.12155680358409882
0	6400	0.00800077524036169
1	5212	-0.21454112231731415
1	4338	-0.1578795313835144
0	4960	0.11299093067646027
0	5470	0.0928431898355484
0	5688	0.039665695279836655
0	5708	0.0036329729482531548
0	5764	0.010153265669941902
0	5760	-0.0007234755903482437
0	5752	-0.0014434874756261706
0	5748	-0.0007201929693110287
0	5760	0.002156282542273402
0	5770	0.0017932287883013487
0	5788	0.003221111372113228
0	5776	-0.0021436738315969706
0	5780	0.0007134109036996961
0	5834	0.009619038552045822
0	5846	0.002135358052328229
0	5868	0.00390990637242794
0	5888	0.003549749730154872
0	5858	-0.005317451898008585
0	5804	-0.009561019949615002
0	5778	-0.00459845969453454
0	5742	-0.006357803009450436
0	5614	-0.022559836506843567
0	5486	-0.022531773895025253
0	5320	-0.02921917848289013
0	5254	-0.011627087369561195
0	5202	-0.009175715036690235
0	5226	0.004247186239808798
0	5192	-0.006057222839444876
0	5264	0.012919741682708263
0	5286	0.003946471493691206
0	5306	0.0035674788523465395
0	5354	0.008544371463358402
0	5374	0.0035626068711280823
0	5420	0.008209302090108395
0	5424	0.0007150774472393095
0	5444	0.0035826456733047962
0	5452	0.0014357673935592175
0	5432	-0.0035958720836788416
0	5414	-0.003242425387725234
0	5418	0.0007220390252768993
0	5420	0.000361785787390545
0	5396	-0.004351084120571613
0	5426	0.005451373755931854
0	5406	-0.003642058465629816
0	5444	0.006937935948371887
0	5510	0.012079652398824692
0	5528	0.003301661927253008
0	5596	0.012500460259616375
0	5614	0.0033142659813165665
0	5624	0.0018434085650369525
0	5612	-0.0022141854278743267
0	5592	-0.0036932623479515314
0	5498	-0.017360683530569077
0	5430	-0.012557865120470524
0	5322	-0.01993134804069996
0	5356	0.006272059865295887
0	5404	0.00884629599750042
0	5416	0.002209158381447196
0	5530	0.020958194509148598
0	5830	0.055063385516405106
0	6610	0.14268988370895386
0	6102	-0.09219823777675629
1	4902	-0.21681000292301178
0	4428	-0.08588408678770065
0	4910	0.08786001056432724
0	5446	0.09800934046506882
0	5696	0.045712754130363464
0	5736	0.007303179241716862
0	5724	-0.0021869076881557703
0	5722	-0.00036379953962750733
0	5772	0.00907825492322445
0	5766	-0.0010870747501030564
0	5782	0.0028924026992172003
0	5766	-0.002886211033910513
0	5764	-0.00035999712417833507
0	5804	0.007186145056039095
0	5798	-0.0010760272853076458
0	5806	0.0014323911163955927
0	5862	0.0100141866132617
0	5864	0.0003571215784177184
0	5890	0.004635958466678858
0	5840	-0.00890059769153595
0	5832	-0.0014220031443983316
0	5772	-0.01064395997673273
0	5686	-0.015225551091134548
0	5600	-0.015192914754152298
0	5502	-0.01728801615536213
0	5364	-0.02433032914996147
0	5256	-0.019046947360038757
0	5192	-0.011305289342999458
0	5158	-0.0060285828076303005
0	5162	0.0007153843762353063
0	5236	0.013309192843735218
0	5236	0.0
0	5256	0.0035726195201277733
0	5306	0.008913185447454453
0	5308	0.0003568242536857724
0	5354	0.008225939236581326
0	5384	0.005376986227929592
0	5384	0.0
0	5408	0.004319084342569113
0	5420	0.002164267934858799
0	5406	-0.0025302423164248466
0	5388	-0.003260554512962699
0	5394	0.001089337863959372
0	5398	0.0007278550183400512
0	5400	0.0003648259153123945
0	5430	0.0054856641218066216
0	5464	0.006231367122381926
0	5522	0.010655888356268406
0	5562	0.007364312186837196
0	5562	0.0
0	5598	0.0066526224836707115
0	5612	0.0025908653624355793
0	5608	-0.0007409785757772624
0	5508	-0.018533391878008842
0	5446	-0.011497236788272858
0	5326	-0.022260421887040138
0	5282	-0.008164073340594769
0	5346	0.01187310554087162
0	5372	0.004818859975785017
0	5414	0.0077740345150232315
0	5574	0.029569394886493683
0	6174	0.11065483093261719
0	6452	0.05097612738609314
1	5152	-0.2366476207971573
1	4274	-0.15997764468193054
0	5010	0.13495178520679474
0	5536	0.09664972126483917
0	5658	0.02239600569009781
0	5738	0.014661324210464954
0	5714	-0.00438954820856452
0	5726	0.00219084694981575
0	5742	0.0029154520016163588
0	5742	0.0
0	5760	0.0032659578137099743
0	5768	0.0014483657432720065
0	5786	0.0032516017090529203
0	5788	0.00036051624920219183
0	5760	-0.005037420894950628
0	5798	0.006826756056398153
0	5806	0.0014351834543049335
0	5820	0.0025079117622226477
0	5826	0.001073396415449679
0	5816	-0.0017867139540612698
0	5794	-0.003925907425582409
0	5752	-0.007482185028493404
0	5690	-0.011025097221136093
0	5580	-0.019518543034791946
0	5468	-0.01983845792710781
0	5310	-0.027966251596808434
0	5256	-0.009561583399772644
0	5212	-0.007798192091286182
0	5178	-0.0060387905687093735
0	5212	0.006074610166251659
0	5246	0.006119803991168737
0	5262	0.0028782845474779606
0	5320	0.010372331365942955
0	5326	0.0010710206115618348
0	5334	0.0014298140304163098
0	5376	0.007521040737628937
0	5412	0.0064605665393173695
0	5426	0.0025169895961880684
0	5410	-0.002881740452721715
0	5400	-0.0018046849872916937
0	5408	0.0014467244036495686
0	5438	0.0054367524571716785
0	5414	-0.004358089528977871
0	5414	0.0
0	5412	-0.0003648214915301651
0	5440	0.00511833094060421
0	5472	0.005862309131771326
0	5558	0.01578715443611145
0	5570	0.0022063960786908865
0	5606	0.006629589945077896
0	5624	0.0033190734684467316
0	5660	0.006645090878009796
0	5622	-0.007018235046416521
0	5508	-0.02106352150440216
0	5426	-0.015157677233219147
0	5312	-0.02107832208275795
0	5352	0.007395811378955841
0	5378	0.004804435186088085
0	5374	-0.0007383888005279005
0	5496	0.02249373123049736
0	5610	0.020982109010219574
0	6440	0.15242408215999603
0	6314	-0.02297341637313366
1	4942	-0.24865283071994781
0	4424	-0.09409742057323456
0	4914	0.08950425684452057
0	5386	0.08645955473184586
0	5662	0.05056488513946533
0	5752	0.016464820131659508
0	5742	-0.0018256170442327857
0	5764	0.004008016083389521
0	5820	0.010180214419960976
0	5782	-0.006892048753798008
0	5804	0.003981275949627161
0	5802	-0.00036108470521867275
0	5830	0.005043348763138056
0	5810	-0.003593976376578212
0	5810	0.0
0	5842	0.005730112083256245
0	5874	0.005720823537558317
0	5900	0.004640758037567139
0	5906	0.0010691883508116007
0	5890	-0.0028470088727772236
0	5854	-0.006395603530108929
0	5772	-0.014537976123392582
0	5712	-0.010615836828947067
0	5648	-0.011296908371150494
0	5538	-0.01938280463218689
0	5406	-0.023237526416778564
0	5298	-0.019008953124284744
0	5222	-0.01339222863316536
0	5230	0.0014129283372312784
0	5226	-0.0007115327753126621
0	5214	-0.0021484585013240576
0	5296	0.01465734001249075
0	5296	0.0
0	5310	0.0024839136749505997
0	5344	0.006035074591636658
0	5340	-0.0007113471510820091
0	5354	0.0024958106223493814
0	5384	0.0053605251014232635
0	5432	0.008596296422183514
0	5398	-0.006103179417550564
0	5394	-0.0007196746882982552
0	5392	-0.0003607243415899575
0	5404	0.0021696940530091524
0	5400	-0.0007250930648297071
0	5406	0.001090340781956911
0	5420	0.0025503698270767927
0	5440	0.0036527456250041723
0	5502	0.01135350950062275
0	5558	0.010279756039381027
0	5558	0.0
0	5600	0.0077420310117304325
0	5610	0.001846221974119544
0	5612	0.0003696128842420876
0	5526	-0.015903150662779808
0	5456	-0.01295416709035635
0	5354	-0.018885625526309013
0	5342	-0.0022225514985620975
0	5330	-0.0022219480015337467
0	5376	0.008511792868375778
0	5446	0.01294107548892498
0	5556	0.020308442413806915
0	6174	0.11385688930749893
0	6526	0.06450273096561432
1	5388	-0.20697933435440063
0	4302	-0.19742822647094727
0	4822	0.09513355046510696
0	5342	0.09543502330780029
0	5662	0.05873355641961098
0	5736	0.013559073209762573
0	5738	0.0003657822962850332
0	5752	0.0025551796425133944
0	5772	0.0036423238925635815
0	5768	-0.0007267882465384901
0	5814	0.00833967886865139
0	5792	-0.0039785876870155334
0	5830	0.006856152787804604
0	5808	-0.00395958824083209
0	5850	0.007542561739683151
0	5848	-0.0003584229270927608
0	5824	-0.004293637350201607
0	5878	0.009645383805036545
0	5886	0.001426584436558187
0	5910	0.004272743593901396
0	5850	-0.010663001798093319
0	5792	-0.010287822224199772
0	5736	-0.009913376532495022
0	5664	-0.012717103585600853
0	5516	-0.02609124965965748
0	5444	-0.012679181061685085
0	5352	-0.01619471237063408
0	5298	-0.009510837495326996
0	5222	-0.013405929319560528
0	5224	0.00035477348137646914
0	5252	0.005005362909287214
0	5316	0.011450108140707016
0	5370	0.009602959267795086
0	5340	-0.005317703355103731
0	5408	0.012053602375090122
0	5414	0.0010651517659425735
0	5420	0.0010671853087842464
0	5464	0.007840808480978012
0	5472	0.0014280444011092186
0	5508	0.006437691394239664
0	5486	-0.0039402516558766365
0	5464	-0.003947982098907232
0	5492	0.005034582689404488
0	5488	-0.0007206861046142876
0	5490	0.00036103688762523234
0	5462	-0.005065489560365677
0	5476	0.0025386540219187737
0	5524	0.008722303435206413
0	5564	0.007284205406904221
0	5630	0.012042476795613766
0	5600	-0.00548319099470973
0	5630	0.005491555668413639
0	5674	0.008062250912189484
0	5612	-0.01136474683880806
0	5530	-0.015035571530461311
0	5372	-0.02896849997341633
0	5310	-0.011372391134500504
0	5320	0.0018347277073189616
0	5310	-0.0018344809068366885
0	5338	0.005133783910423517
0	5434	0.01758928969502449
0	5612	0.0325772650539875
0	6356	0.1359202116727829
0	6284	-0.01307506114244461
1	4954	-0.24015311896800995
0	4292	-0.1198623925447464
0	4820	0.09625200182199478
0	5350	0.09697014093399048
0	5660	0.0567578487098217
0	5768	0.019751038402318954
0	5734	-0.00620808033272624
0	5780	0.00838650856167078
0	5784	0.00072786386590451
0	5782	-0.00036328850546851754
0	5784	0.0003626429243013263
0	5788	0.0007239993428811431
0	5762	-0.00469675799831748
0	5766	0.0007213359349407256
0	5768	0.00036014404031448066
0	5792	0.004316443111747503
0	5818	0.004671609960496426
0	5860	0.00753660686314106
0	5882	0.003942322451621294
0	5804	-0.013959981501102448
0	5792	-0.0021452323999255896
0	5734	-0.010352459736168385
0	5722	-0.0021372849587351084
0	5604	-0.020965352654457092
0	5494	-0.019511157646775246
0	5384	-0.01948995515704155
0	5256	-0.02267305925488472
0	5192	-0.01134845707565546
0	5116	-0.013509830459952354
0	5170	0.009670140221714973
0	5174	0.0007211018237285316
0	5214	0.007201497908681631
0	5270	0.010026617906987667
0	5266	-0.0007142687099985778
0	5324	0.010362076573073864
0	5358	0.006086499895900488
0	5370	0.002153444802388549
0	5400	0.005395359825342894
0	5406	0.0010815358255058527
0	5434	0.005058655980974436
0	5440	0.0010862742783501744
0	5436	-0.0007256894023157656
0	5446	0.00181809370405972
0	5462	0.0029145313892513514
0	5470	0.0014599605929106474
0	5480	0.0018282650271430612
0	5458	-0.004029845353215933
0	5496	0.006975975818932056
0	5546	0.009199406020343304
0	5588	0.007743458263576031
0	5624	0.0066460720263421535
0	5628	0.0007392166880890727
0	5688	0.011095494963228703
0	5700	0.0022195642814040184
0	5626	-0.013679216615855694
0	5508	-0.02179507538676262
0	5416	-0.01697980798780918
0	5320	-0.017700638622045517
0	5350	0.005527101457118988
0	5370	0.003679446643218398
0	5380	0.0018374697538092732
0	5508	0.023489974439144135
0	5738	0.042132776230573654
0	6454	0.13078740239143372
0	6064	-0.07072734087705612
1	4704	-0.2455405592918396
0	4284	-0.07612833380699158
0	4926	0.11713618785142899
0	5494	0.10393412411212921
0	5790	0.05413379892706871
0	5794	0.0007299536955542862
0	5812	0.0032777332235127687
0	5794	-0.0032702696043998003
0	5784	-0.001812995527870953
0	5796	0.002171369269490242
0	5786	-0.0018059234134852886
0	5802	0.002884164685383439
0	5800	-0.0003597769245970994
0	5814	0.0025138561613857746
0	5824	0.0017927357694134116
0	5852	0.005012591369450092
0	5854	0.00035755574936047196
0	5862	0.0014282993506640196
0	5846	-0.0028536436147987843
0	5852	0.0010691883508116007
0	5786	-0.011745304800570011
0	5752	-0.006040649954229593
0	5684	-0.012057307176291943
0	5590	-0.016631674021482468
0	5470	-0.021201912313699722
0	5316	-0.027193104848265648
0	5222	-0.016604643315076828
0	5160	-0.01097047422081232
0	5156	-0.0007101936498656869
0	5180	0.004294149111956358
0	5206	0.0046766516752541065
0	5248	0.007531920913606882
0	5288	0.0071321590803563595
0	5316	0.0049817925319075584
0	5324	0.0014248735969886184
0	5362	0.006786926183849573
0	5386	0.004297532606869936
0	5386	0.0
0	5418	0.005758710205554962
0	5404	-0.002524979179725051
0	5418	0.0025309438351541758
0	5446	0.005073137581348419
0	5436	-0.0018157388549298048
0	5454	0.003275546245276928
0	5450	-0.0007294921670109034
0	5458	0.0014623090391978621
0	5458	0.0
0	5480	0.00404079956933856
0	5558	0.014360057190060616
0	5562	0.0007377170259132981
0	5596	0.006281793583184481
0	5632	0.006659103091806173
0	5664	0.005923585966229439
0	5740	0.01407025195658207
0	5670	-0.01294745784252882
0	5548	-0.022537779062986374
0	5414	-0.024719294160604477
0	5292	-0.022479087114334106
0	5318	0.004786744713783264
0	5352	0.0062533714808523655
0	5370	0.003307121340185404
0	5474	0.019088640809059143
0	5730	0.04692254215478897
0	6478	0.1367325633764267
0	5882	-0.10818136483430862
1	4364	-0.27460864186286926
0	4336	-0.005095912143588066
0	5026	0.12638288736343384
0	5616	0.10830457508563995
0	5780	0.030068570747971535
0	5796	0.002926793647930026
0	5828	0.005840126425027847
0	5794	-0.0061907474882900715
0	5798	0.0007267441833391786
0	5804	0.0010878498433157802
0	5796	-0.0014473700430244207
0	5790	-0.0010833193082362413
0	5776	-0.002522704191505909
0	5802	0.0046767075546085835
0	5824	0.00395143311470747
0	5836	0.0021519516594707966
0	5836	0.0
0	5860	0.004292510915547609
0	5898	0.006788542959839106
0	5856	-0.007496073842048645
0	5806	-0.008914032950997353
0	5802	-0.0007120309164747596
0	5728	-0.013142316602170467
0	5644	-0.014879897236824036
0	5482	-0.02864181064069271
0	5352	-0.022966574877500534
0	5240	-0.01978868618607521
0	5190	-0.008846426382660866
0	5190	0.0
0	5170	-0.0035771348048001528
0	5182	0.002155430382117629
0	5206	0.0042898510582745075
0	5242	0.006401593331247568
0	5270	0.004972650669515133
0	5292	0.003915101755410433
0	5314	0.003926468081772327
0	5316	0.000357978162355721
0	5348	0.00574520044028759
0	5338	-0.0018001800635829568
0	5342	0.0007220651023089886
0	5380	0.006878741085529327
0	5382	0.0003629500570241362
0	5398	0.0029107844457030296
0	5412	0.002552788006141782
0	5404	-0.0014622020535171032
0	5416	0.002198929665610194
0	5432	0.002939447294920683
0	5430	-0.0003683422110043466
0	5496	0.012187466025352478
0	5512	0.0029618660919368267
0	5566	0.010017561726272106
0	5590	0.004458867013454437
0	5594	0.0007441214402206242
0	5676	0.015267175622284412
0	5710	0.006329034920781851
0	5692	-0.0033459323458373547
0	5584	-0.02003338932991028
0	5454	-0.02406308241188526
0	5314	-0.025871947407722473
0	5314	0.0
0	5340	0.004796870984137058
0	5376	0.0066353739239275455
0	5498	0.022463083267211914
0	5646	0.027207549661397934
0	6422	0.14232785999774933
0	6224	-0.0360664501786232
1	4568	-0.29998913407325745
0	4046	-0.09499084204435349
0	4744	0.12802954018115997
0	5452	0.13033713400363922
0	5824	0.06843602657318115
0	5856	0.005870985332876444
0	5876	0.0036587596405297518
0	5870	-0.0010944377863779664
0	5864	-0.0010913986479863524
0	5872	0.0014511506306007504
0	5882	0.0018089505610987544
0	5854	-0.005051355343312025
0	5872	0.003239041194319725
0	5852	-0.003590836189687252
0	5872	0.0035835441667586565
0	5864	-0.0014308028621599078
0	5880	0.0028569388668984175
0	5906	0.004634636454284191
0	5888	-0.003204215317964554
0	5882	-0.0010669449111446738
0	5874	-0.0014209927758201957
0	5810	-0.01134845707565546
0	5774	-0.006370102986693382
0	5646	-0.02258796989917755
0	5516	-0.022896192967891693
0	5362	-0.027095185592770576
0	5254	-0.019003378227353096
0	5204	-0.008810468949377537
0	5168	-0.006360049359500408
0	5178	0.0017798239132389426
0	5202	0.004298251122236252
0	5216	0.002497859066352248
0	5276	0.010631135664880276
0	5274	-0.00035326118813827634
0	5302	0.004950845148414373
0	5314	0.002128338674083352
0	5348	0.006049678660929203
0	5338	-0.0017849068390205503
0	5348	0.0017905745189636946
0	5380	0.005747539456933737
0	5396	0.002882259665057063
0	5422	0.004697380121797323
0	5400	-0.003985073883086443
0	5398	-0.00036331487353891134
0	5414	0.0029145313892513514
0	5420	0.0010959971696138382
0	5420	0.0
0	5442	0.004040898755192757
0	5442	0.0
0	5476	0.006280014757066965
0	5520	0.008147443644702435
0	5548	0.005196090787649155
0	5534	-0.0026022628881037235
0	5586	0.009679941460490227
0	5648	0.01154576800763607
0	5698	0.009303479455411434
0	5610	-0.016340071335434914
0	5482	-0.023715121671557426
0	5326	-0.028853269293904305
0	5260	-0.012195272371172905
0	5300	0.00738734332844615
0	5346	0.008490322157740593
0	5354	0.0014753977302461863
0	5530	0.03244319185614586
0	5734	0.03754555061459541
0	6636	0.1655714362859726
0	5896	-0.13474471867084503
1	4126	-0.3212263584136963
0	4224	0.017916778102517128
0	4892	0.12296892702579498
0	5552	0.12186115235090256
0	5810	0.047590937465429306
0	5822	0.002208263846114278
0	5852	0.005506405606865883
0	5838	-0.0025625380221754313
0	5818	-0.0036513227969408035
0	5840	0.0040067508816719055
0	5814	-0.004723208025097847
0	5854	0.007250141818076372
0	5840	-0.0025312488432973623
0	5826	-0.002525708172470331
0	5836	0.0018007634207606316
0	5820	-0.002876249374821782
0	5876	0.010049649514257908
0	5860	-0.0028663561679422855
0	5872	0.002147048944607377
0	5844	-0.005004587583243847
0	5810	-0.006068538874387741
0	5776	-0.006056719459593296
0	5714	-0.011015172116458416
0	5624	-0.0159468911588192
0	5486	-0.02440519817173481
0	5340	-0.025798698887228966
0	5264	-0.01343056745827198
0	5158	-0.01876150444149971
0	5152	-0.0010655932128429413
0	5162	0.0017917293589562178
0	5196	0.006118702702224255
0	5248	0.009298333898186684
0	5242	-0.0010663759894669056
0	5296	0.009577524848282337
0	5320	0.0042631300166249275
0	5338	0.0032066507264971733
0	5362	0.00428785802796483
0	5376	0.0025085709057748318
0	5376	0.0
0	5374	-0.00036031275521963835
0	5410	0.00650382973253727
0	5386	-0.004346461035311222
0	5416	0.005448469426482916
0	5410	-0.0010924981907010078
0	5372	-0.00693666934967041
0	5434	0.011349768377840519
0	5388	-0.00844067707657814
0	5400	0.0022085076197981834
0	5410	0.0018456312827765942
0	5428	0.0033316060435026884
0	5510	0.015216370113193989
0	5508	-0.0003718209336511791
0	5520	0.0022346368059515953
0	5538	0.003355996683239937
0	5640	0.019027484580874443
0	5652	0.002236386062577367
0	5582	-0.013020348735153675
0	5396	-0.03452884778380394
0	5298	-0.018165865913033485
0	5270	-0.005185569170862436
0	5328	0.010734379291534424
0	5320	-0.0014793993905186653
0	5404	0.015526802279055119
0	5532	0.02363629639148712
0	5954	0.07781288027763367
0	6842	0.1631033718585968
1	5762	-0.19655901193618774
1	3876	-0.3424193263053894
0	4554	0.12422435730695724
0	5132	0.10643652081489563
0	5604	0.08704632520675659
0	5760	0.02873528003692627
0	5760	0.0
0	5778	0.003301056567579508
0	5774	-0.0007319215219467878
0	5742	-0.005841050297021866
0	5782	0.007287655957043171
0	5770	-0.002181077841669321
0	5796	0.00471509899944067
0	5774	-0.0039804112166166306
0	5786	0.0021666125394403934
0	5798	0.0021630197297781706
0	5804	0.001079628593288362
0	5822	0.0032333782874047756
0	5806	-0.0028692346531897783
0	5802	-0.0007165975985117257
0	5770	-0.005727650597691536
0	5724	-0.008224272169172764
0	5702	-0.003925674129277468
0	5618	-0.014953004196286201
0	5506	-0.0198962539434433
0	5402	-0.018455641344189644
0	5278	-0.021994134411215782
0	5178	-0.01775042898952961
0	5140	-0.006759320851415396
0	5134	-0.001072437153197825
0	5162	0.005056159570813179
0	5174	0.002174779772758484
0	5212	0.006833221297711134
0	5244	0.0057316855527460575
0	5306	0.011097719892859459
0	5284	-0.003944914788007736
0	5330	0.008271993137896061
0	5356	0.004687556065618992
