0	5058	-0.042237523943185806
0	4980	-0.013880815356969833
0	4922	-0.010275792330503464
0	4936	0.0024860897101461887
0	4992	0.009974588640034199
0	5030	0.006788461934775114
0	5078	0.00859906803816557
0	5134	0.010059639811515808
0	5202	0.012245632708072662
0	5278	0.013715440407395363
0	5294	0.002892960561439395
0	5332	0.006884141359478235
0	5370	0.006897136103361845
0	5412	0.0076361787505447865
0	5422	0.0018208966357633471
0	5464	0.007659574039280415
0	5464	0.0
0	5478	0.002560507273301482
0	5490	0.002198312198743224
0	5482	-0.0014679079176858068
0	5494	0.0022067748941481113
0	5518	0.004424180369824171
0	5538	0.003695946652442217
0	5544	0.0011117149842903018
0	5536	-0.0014866020064800978
0	5552	0.002982181264087558
0	5548	-0.0007476635510101914
0	5556	0.0014987074537202716
0	5578	0.004126392770558596
0	5568	-0.0018752578180283308
0	5552	-0.0029953198973089457
0	5574	0.004105907399207354
0	5556	-0.0033470108173787594
0	5596	0.007408687379211187
0	5596	0.0
0	5572	-0.004410791676491499
0	5584	0.0021980975288897753
0	5600	0.002921769628301263
0	5618	0.0032776936423033476
0	5580	-0.006902147084474564
0	5636	0.010153020732104778
0	5610	-0.004704179707914591
0	5590	-0.0036125427577644587
0	5602	0.0021646583918482065
0	5578	-0.004324376583099365
0	5598	0.003600273746997118
0	5578	-0.0035973810590803623
0	5594	0.002875939244404435
0	5652	0.010418038815259933
0	5678	0.00466562993824482
0	5734	0.01003728061914444
0	5786	0.009306986816227436
0	5722	-0.011436467990279198
0	5658	-0.011423947289586067
0	5560	-0.017481060698628426
0	5534	-0.004637171048671007
0	5450	-0.01498323306441307
0	5390	-0.010708549059927464
0	5390	0.0
0	5460	0.012519673444330692
0	5478	0.003221418708562851
0	5434	-0.007878057658672333
0	5380	-0.009676610119640827
0	6302	0.16539302468299866
0	7488	0.21185633540153503
0	6938	-0.09715254604816437
1	4472	-0.4321211278438568
0	4554	0.014462932012975216
0	5412	0.15226805210113525
0	5510	0.017413143068552017
0	5530	0.0035551763139665127
0	5572	0.007470562122762203
0	5588	0.002846569987013936
0	5602	0.0024907782208174467
0	5596	-0.0010674763470888138
0	5632	0.006404174491763115
0	5638	0.001067147240974009
0	5650	0.00213353568688035
0	5656	0.0010664138244464993
0	5680	0.004265554249286652
0	5702	0.003910045139491558
0	5714	0.002133156405761838
0	5760	0.008180589415133
0	5796	0.006400758400559425
0	5808	0.002131842775270343
0	5878	0.012417512014508247
0	5914	0.0063731856644153595
0	5992	0.013770862482488155
0	6024	0.005629640072584152
0	6050	0.004557139240205288
0	6044	-0.0010480349883437157
0	5998	-0.008008542470633984
0	5902	-0.016658954322338104
0	5744	-0.02733532339334488
0	5476	-0.04651593416929245
0	5240	-0.04144422709941864
0	5064	-0.031217852607369423
0	4952	-0.019796613603830338
0	4934	-0.0031741554848849773
0	4930	-0.0007073553279042244
0	4992	0.01100162137299776
0	5018	0.004628310911357403
0	5064	0.008215556852519512
0	5162	0.017557479441165924
0	5216	0.009700017981231213
0	5292	0.013683009892702103
0	5334	0.007577124517410994
0	5382	0.008675429970026016
0	5386	0.0007241217535920441
0	5402	0.0029012137092649937
0	5450	0.008718290366232395
0	5474	0.0043658060021698475
0	5476	0.0003643473901320249
0	5506	0.0054746526293456554
0	5526	0.003656218061223626
0	5508	-0.0032962604891508818
0	5552	0.008075765334069729
0	5522	-0.00551842525601387
0	5536	0.002582708140835166
0	5598	0.011472133919596672
0	5564	-0.006308757700026035
0	5538	-0.004838709719479084
0	5610	0.013437850400805473
0	5572	-0.007105106022208929
0	5608	0.006738376338034868
0	5624	0.0029923697002232075
0	5614	-0.0018657644977793097
0	5620	0.001115642488002777
0	5642	0.004073822405189276
0	5610	-0.005899777635931969
0	5588	-0.004039217252284288
0	5602	0.0025610693264752626
0	5580	-0.0040102568455040455
0	5600	0.003634293098002672
0	5600	0.0
0	5592	-0.0014465150889009237
0	5562	-0.005414641462266445
0	5590	0.005046742502599955
0	5578	-0.0021601899061352015
0	5568	-0.0017980867996811867
0	5572	0.000718519848305732
0	5588	0.002871981356292963
0	5572	-0.0028700237162411213
0	5562	-0.0017927357694134116
0	5642	0.014337089844048023
0	5684	0.00752175971865654
0	5716	0.00572484964504838
0	5760	0.007863976992666721
0	5698	-0.011065368540585041
0	5666	-0.005705659277737141
0	5574	-0.01639714278280735
0	5522	-0.00926740001887083
0	5504	-0.00320825120434165
0	5432	-0.012841091491281986
0	5410	-0.003926935140043497
0	5414	0.0007148303557187319
0	5432	0.003220765618607402
0	5428	-0.0007165034767240286
0	5260	-0.03012768365442753
0	5710	0.08088385313749313
0	7098	0.24933235347270966
0	7490	0.06978565454483032
1	5560	-0.3397807478904724
0	4164	-0.24579772353172302
0	5086	0.16371901333332062
0	5358	0.04844627529382706
0	5412	0.009631391614675522
0	5432	0.0035703659523278475
0	5464	0.005717961583286524
0	5472	0.001430461648851633
0	5502	0.00536730233579874
0	5530	0.005011574365198612
0	5532	0.00035809350083582103
0	5600	0.012178086675703526
0	5584	-0.0028647822327911854
0	5624	0.007164435926824808
0	5660	0.00645030289888382
0	5678	0.003226230386644602
0	5650	-0.005021040793508291
0	5734	0.015067445114254951
0	5756	0.003944631665945053
0	5806	0.008955330587923527
0	5804	-0.00035760688479058444
0	5850	0.008210278116166592
0	5898	0.008545994758605957
0	5988	0.015977466478943825
0	5938	-0.008846321143209934
0	5882	-0.009878401644527912
0	5890	0.001407442963682115
0	5790	-0.01752827875316143
0	5540	-0.043800223618745804
0	5318	-0.039251744747161865
0	5110	-0.03725328668951988
0	5000	-0.019754327833652496
0	4926	-0.013223101384937763
0	4978	0.009300773032009602
0	4962	-0.0028682744596153498
0	5064	0.01833455264568329
0	5154	0.016213294118642807
0	5142	-0.002165804384276271
0	5248	0.01916932873427868
0	5318	0.012678402476012707
0	5316	-0.00036270433338359
0	5386	0.01271124929189682
0	5416	0.005454744212329388
0	5448	0.005824323743581772
0	5478	0.00546614034101367
0	5532	0.009849940426647663
0	5526	-0.0010954102035611868
0	5528	0.00036541250301524997
0	5554	0.004756329581141472
0	5544	-0.001831613713875413
0	5540	-0.0007338193245232105
0	5574	0.0062475502490997314
0	5572	-0.0003681252710521221
0	5586	0.0025820410810410976
0	5578	-0.001479107653722167
0	5574	-0.0007411983096972108
0	5582	0.0014852220192551613
0	5574	-0.0014880583621561527
0	5594	0.0037251347675919533
0	5616	0.004096274729818106
0	5642	0.004832115024328232
0	5620	-0.004075281787663698
0	5622	0.0003690672165248543
0	5640	0.00330744544044137
0	5658	0.003294088877737522
0	5626	-0.0058313999325037
0	5642	0.002905780216678977
0	5664	0.003983679227530956
0	5676	0.0021660912316292524
0	5564	-0.020164920017123222
0	5688	0.02229253575205803
0	5660	-0.005022601690143347
0	5662	0.0003581704804673791
0	5696	0.006079969462007284
0	5742	0.008213698863983154
0	5758	0.002852456644177437
0	5806	0.00854589231312275
0	5774	-0.005687810014933348
0	5718	-0.009939181618392467
0	5622	-0.017022080719470978
0	5610	-0.0021267796400934458
0	5516	-0.01665288768708706
0	5430	-0.01524084061384201
0	5432	0.00035473573370836675
0	5444	0.00213035405613482
0	5468	0.0042640892788767815
0	5502	0.0060445875860750675
0	5368	-0.02383408509194851
0	5642	0.04879496619105339
0	6966	0.2357158213853836
0	7426	0.0812443345785141
1	5844	-0.2765057682991028
0	4258	-0.2768435776233673
0	5048	0.13900130987167358
0	5474	0.07521629333496094
0	5500	0.004595642443746328
0	5530	0.005306603852659464
0	5552	0.003894080873578787
0	5588	0.006376346107572317
0	5558	-0.005316384136676788
0	5644	0.01524084061384201
0	5678	0.006027015391737223
0	5636	-0.007444344460964203
0	5670	0.006027299910783768
0	5708	0.006737429182976484
0	5720	0.0021280369255691767
0	5678	-0.007449802476912737
0	5700	0.00390523299574852
0	5830	0.023086486384272575
0	5804	-0.004614237695932388
0	5854	0.008863991126418114
0	5930	0.013453868217766285
0	5982	0.009182844310998917
0	5974	-0.0014081697445362806
0	6016	0.007369454950094223
0	6002	-0.002448294311761856
0	5972	-0.005230064503848553
0	5884	-0.015299735590815544
0	5710	-0.030161555856466293
0	5494	-0.03742722421884537
0	5272	-0.038796719163656235
0	5092	-0.03185652568936348
0	4970	-0.021687861531972885
0	4956	-0.002478314796462655
0	4954	-0.0003542372724041343
0	4972	0.003197953337803483
0	5014	0.007485296577215195
0	5058	0.007865851745009422
0	5128	0.01255080010741949
0	5234	0.01905789226293564
0	5230	-0.0007205649162642658
0	5330	0.018059017136693
0	5356	0.004705201368778944
0	5414	0.010513976216316223
0	5404	-0.0018155630677938461
0	5470	0.012004802003502846
0	5490	0.0036433411296457052
0	5498	0.0014590020291507244
0	5548	0.00912997405976057
0	5526	-0.004024095833301544
0	5510	-0.002931584371253848
0	5522	0.0022033171262592077
0	5578	0.010307886637747288
0	5520	-0.010702555067837238
0	5584	0.011842787265777588
0	5540	-0.008163669146597385
0	5548	0.001488556619733572
0	5576	0.005223685409873724
0	5566	-0.001869182218797505
0	5556	-0.0018708606949076056
0	5550	-0.0011220825836062431
0	5550	0.0
0	5572	0.004095512442290783
0	5544	-0.005193070974200964
0	5570	0.0048046717420220375
0	5564	-0.001104579190723598
0	5572	0.0014674412086606026
0	5538	-0.00621541915461421
0	5610	0.013123678974807262
0	5684	0.013448839075863361
0	5682	-0.00036249394179321826
0	5740	0.01048369612544775
0	5728	-0.002163695404306054
0	5666	-0.011154155246913433
0	5554	-0.020119037479162216
0	5580	0.004666299559175968
0	5494	-0.015424533747136593
0	5444	-0.008967537432909012
0	5416	-0.0050234426744282246
0	5452	0.006463814526796341
0	5464	0.002155559603124857
0	5502	0.006827819161117077
0	5384	-0.021204715594649315
0	5748	0.06548725813627243
0	7110	0.24470290541648865
0	7320	0.03738783672451973
1	5380	-0.34178197383880615
0	4402	-0.1724705547094345
0	5316	0.16230422258377075
0	5528	0.03770184516906738
0	5528	0.0
0	5558	0.005336748901754618
0	5602	0.00782686099410057
0	5602	0.0
0	5608	0.0010667424649000168
0	5610	0.0003555007860995829
0	5654	0.007818886078894138
0	5668	0.002486619632691145
0	5658	-0.001774790813215077
0	5686	0.004968003369867802
0	5696	0.001774266012944281
0	5728	0.0056771812960505486
0	5732	0.0007096980116330087
0	5774	0.0074516525492072105
0	5824	0.008865353651344776
0	5812	-0.0021242948714643717
0	5920	0.019092516973614693
0	5960	0.0070535955019295216
0	6016	0.009845172986388206
0	6016	0.0
0	6000	-0.0027938487473875284
0	5900	-0.0174072477966547
0	5780	-0.020840570330619812
0	5566	-0.03708067536354065
0	5306	-0.045098695904016495
0	5126	-0.03155127167701721
0	5056	-0.012429271824657917
0	4990	-0.01174154318869114
0	5024	0.006027656607329845
0	5034	0.0017759045585989952
0	5090	0.009974232874810696
0	5080	-0.0017857567872852087
0	5210	0.023281080648303032
0	5276	0.011847348883748055
0	5278	0.0003597122267819941
0	5352	0.013335736468434334
0	5402	0.00902461912482977
0	5412	0.0018076645210385323
0	5442	0.00543137127533555
0	5468	0.004713332746177912
0	5474	0.0010891269193962216
0	5526	0.009451795369386673
0	5528	0.0003639760834630579
0	5522	-0.001093281083740294
0	5508	-0.002554900012910366
0	5540	0.005851018708199263
0	5512	-0.005128142423927784
0	5518	0.00110163155477494
0	5516	-0.00036820658715441823
0	5536	0.003693398553878069
0	5488	-0.008890424855053425
0	5552	0.01189148984849453
0	5572	0.0037241175305098295
0	5548	-0.004474717658013105
0	5544	-0.0007458697655238211
0	5574	0.005585760343819857
0	5582	0.001485405839048326
0	5566	-0.002961171558126807
0	5584	0.0033195223659276962
0	5616	0.005881127901375294
0	5636	0.003662646049633622
0	5652	0.002920383121818304
0	5710	0.010549674741923809
0	5750	0.007253647781908512
0	5720	-0.00542469322681427
0	5708	-0.0021641117054969072
0	5596	-0.020155243575572968
0	5568	-0.005032953806221485
0	5498	-0.012570635415613651
0	5474	-0.004308487754315138
0	5438	-0.006462499499320984
0	5482	0.007900312542915344
0	5522	0.0071839941665530205
0	5444	-0.014009291306138039
0	5420	-0.004312565084546804
0	6300	0.15821076929569244
0	7480	0.21118442714214325
0	7016	-0.08207837492227554
1	4808	-0.38716012239456177
0	4640	-0.029580241069197655
0	5492	0.15080712735652924
0	5546	0.00955797266215086
0	5580	0.006018196232616901
0	5562	-0.0031859534792602062
0	5596	0.006017415318638086
0	5636	0.007077140733599663
0	5640	0.0007074553868733346
0	5644	0.0007072135922499001
0	5670	0.004594775848090649
0	5704	0.006005510687828064
0	5700	-0.0007061648066155612
0	5706	0.0010588484583422542
0	5692	-0.0024698616471141577
0	5776	0.01482073962688446
0	5786	0.0017641040030866861
0	5794	0.00141073577105999
0	5806	0.0021150344982743263
0	5874	0.011970425955951214
0	5906	0.005623044911772013
0	5972	0.01156988088041544
0	6014	0.0073412880301475525
0	6040	0.004529406316578388
0	6030	-0.001736452803015709
0	5992	-0.006579175591468811
0	5900	-0.015878312289714813
0	5714	-0.03201340138912201
0	5470	-0.042137742042541504
0	5240	-0.04018496721982956
0	5070	-0.030012357980012894
0	5000	-0.012339005246758461
0	4968	-0.005628781393170357
0	4968	0.0
0	5040	0.012747122906148434
0	5102	0.011011781170964241
0	5162	0.010685663670301437
0	5224	0.0110703743994236
0	5288	0.011455574072897434
0	5294	0.0010762203019112349
0	5354	0.010784772224724293
0	5406	0.009364532306790352
0	5444	0.006855576299130917
0	5440	-0.000722752243746072
0	5472	0.005791296251118183
0	5498	0.004711681045591831
0	5492	-0.001089140074327588
0	5516	0.004364324267953634
0	5520	0.0007286151521839201
0	5488	-0.0058390605263412
0	5524	0.006584402173757553
0	5542	0.0032998863607645035
0	5530	-0.0022057201713323593
0	5558	0.005161988083273172
0	5560	0.0003698087821248919
0	5562	0.0003708832082338631
0	5556	-0.0011156148975715041
0	5566	0.0018633308354765177
0	5578	0.0022380545269697905
0	5610	0.005964140873402357
0	5598	-0.0022314232774078846
0	5594	-0.0007413814309984446
0	5610	0.002954682568088174
0	5596	-0.0025751704815775156
0	5594	-0.0003664703981485218
0	5634	0.00730469124391675
0	5652	0.0032765003852546215
0	5664	0.002177858492359519
0	5798	0.02425485849380493
0	5778	-0.003609022591263056
0	5738	-0.0071970927529037
0	5626	-0.020105553790926933
0	5576	-0.008963894098997116
0	5504	-0.012897832319140434
0	5486	-0.003223226172849536
0	5454	-0.005729701370000839
0	5450	-0.0007164007984101772
0	5456	0.0010748706990852952
0	5470	0.0025089303962886333
0	5354	-0.020794494077563286
0	5434	0.014352522790431976
0	6570	0.2039155662059784
0	7498	0.1655605435371399
0	6650	-0.14953799545764923
1	4184	-0.432085782289505
0	5244	0.1872350424528122
0	5500	0.04530385509133339
0	5438	-0.010975653305649757
0	5430	-0.0014172837836667895
0	5456	0.004610201809555292
0	5454	-0.0003549539833329618
0	5554	0.01776283048093319
0	5650	0.017056357115507126
0	5636	-0.0024867963511496782
0	5618	-0.0031965523958206177
0	5604	-0.0024858543183654547
0	5604	0.0
0	5580	-0.0042634326964616776
0	5618	0.0067537943832576275
0	5580	-0.006761004216969013
0	5546	-0.00605643168091774
0	5672	0.02247004024684429
0	5718	0.008201105520129204
0	5812	0.016744649037718773
0	5862	0.008890469558537006
0	5994	0.023418650031089783
0	5982	-0.0021221910137683153
0	6024	0.00740444753319025
0	5854	-0.02987067587673664
0	5824	-0.005259466823190451
0	5420	-0.07063348591327667
0	5252	-0.029374737292528152
0	5086	-0.029249727725982666
0	4962	-0.02216317318379879
0	4918	-0.00794424582272768
0	4910	-0.0014380556531250477
0	4886	-0.0043228184804320335
0	4920	0.006146651692688465
0	5072	0.02756519429385662
0	5056	-0.002907892456278205
0	5056	0.0
0	5262	0.037620991468429565
0	5320	0.01061118021607399
0	5374	0.009899296797811985
0	5380	0.0011016855714842677
0	5434	0.009929634630680084
0	5446	0.0022088871337473392
0	5410	-0.00663309171795845
0	5430	0.0036889025941491127
0	5478	0.00886361114680767
0	5490	0.002217294881120324
0	5450	-0.007393533363938332
0	5508	0.01073530688881874
0	5684	0.03261836618185043
0	5660	-0.004451478831470013
0	5576	-0.015599657781422138
0	5468	-0.02010873705148697
0	5594	0.023535272106528282
0	5496	-0.018354350700974464
0	5460	-0.00675751781091094
0	5606	0.02746804803609848
0	5588	-0.0033825261052697897
0	5720	0.02475309558212757
0	5692	-0.005229930393397808
0	5626	-0.012271915562450886
0	5646	0.00370251527056098
0	5572	-0.013637368567287922
0	5624	0.009542802348732948
0	5552	-0.013156452216207981
0	5676	0.02259228192269802
0	5638	-0.006897469982504845
0	5676	0.006873266771435738
0	5778	0.01840335875749588
0	5706	-0.012954921461641788
0	5858	0.027294930070638657
0	5862	0.0007162382826209068
0	5650	-0.03786390274763107
0	5592	-0.0103464275598526
0	5626	0.006058590020984411
0	5526	-0.017798662185668945
0	5502	-0.0042704627849161625
0	5442	-0.010675396770238876
0	5492	0.00889658648520708
0	5428	-0.01138871069997549
0	5572	0.02566356770694256
0	5378	-0.03459261730313301
0	5554	0.03141997009515762
0	6918	0.24338020384311676
0	7536	0.10940893739461899
1	6140	-0.24420395493507385
0	4292	-0.3219960927963257
0	5102	0.14222003519535065
0	5568	0.08205381035804749
0	5566	-0.000352476752595976
0	5508	-0.010229397565126419
0	5586	0.013766325078904629
0	5646	0.010593220591545105
0	5630	-0.0028236289508640766
0	5766	0.024000000208616257
0	5682	-0.014804893173277378
0	5694	0.002114910166710615
0	5770	0.01339002512395382
0	5764	-0.0010565239936113358
0	5758	-0.0010566108394414186
0	5662	-0.016900615766644478
0	5800	0.02432260848581791
0	5792	-0.0014105201698839664
0	5858	0.011627087369561195
0	5822	-0.006332156714051962
0	6066	0.04286868870258331
0	5948	-0.020666223019361496
0	6014	0.011529055424034595
0	6110	0.016713866963982582
0	6174	0.011102758347988129
0	6148	-0.004491121042519808
0	6008	-0.02410302311182022
0	5912	-0.016468247398734093
0	5566	-0.05923305079340935
0	5342	-0.03864556550979614
0	5132	-0.036693185567855835
0	4982	-0.026364201679825783
0	4984	0.00035010738065466285
0	4996	0.0021020914427936077
0	5104	0.01898222602903843
0	5180	0.013394116424024105
0	5060	-0.021189432591199875
0	5348	0.05101257562637329
0	5300	-0.008517080917954445
0	5254	-0.008178165182471275
0	5484	0.04101527854800224
0	5386	-0.017496665939688683
0	5444	0.010374186560511589
0	5450	0.001075281761586666
0	5478	0.005027411039918661
0	5516	0.00683436868712306
0	5476	-0.007200374733656645
0	5418	-0.010460879653692245
0	5558	0.02530730329453945
0	5620	0.011227816343307495
0	5664	0.007977855391800404
0	5610	-0.009814850986003876
0	5584	-0.004735365975648165
0	5556	-0.00511297257617116
0	5568	0.002198688220232725
0	5520	-0.008827423676848412
0	5602	0.01513846218585968
0	5606	0.0007403111667372286
0	5586	-0.003708556992933154
0	5614	0.005191337782889605
0	5576	-0.007033563684672117
0	5574	-0.0003691762394737452
0	5564	-0.001839181873947382
0	5598	0.006231062579900026
0	5620	0.004017090890556574
0	5550	-0.012741636484861374
0	5630	0.014529252424836159
0	5658	0.005067750811576843
0	5578	-0.014452259056270123
0	5616	0.006853350438177586
0	5576	-0.007198387756943703
0	5588	0.0021583251655101776
0	5488	-0.017964286729693413
0	5648	0.028735287487506866
0	5600	-0.008610380813479424
0	5608	0.0014340172056108713
0	5548	-0.010749220848083496
0	5574	0.004655993543565273
0	5576	0.0003578201576601714
0	5612	0.006440071389079094
0	5594	-0.0032201893627643585
0	5630	0.0064430683851242065
0	5780	0.026842914521694183
0	5738	-0.007507239002734423
0	5604	-0.023925723508000374
0	5544	-0.01071071531623602
0	5502	-0.007496430538594723
0	5458	-0.007858077995479107
0	5362	-0.017160017043352127
0	5302	-0.010739344172179699
0	5372	0.012552601285278797
0	5482	0.0197495985776186
0	5380	-0.018323354423046112
0	5258	-0.021940341219305992
0	5920	0.11929646879434586
0	7304	0.24895668029785156
0	7166	-0.024565359577536583
1	5258	-0.3365752100944519
0	4274	-0.17398889362812042
0	5244	0.1728418469429016
0	5386	0.02535865269601345
0	5478	0.01644815132021904
0	5564	0.015385533683001995
0	5532	-0.005722255911678076
0	5558	0.0046525499783456326
0	5554	-0.000715956324711442
0	5586	0.0057294960133731365
0	5574	-0.0021480738651007414
0	5576	0.0003580123302526772
0	5556	-0.00358012318611145
0	5660	0.01862286403775215
0	5632	-0.005011873319745064
0	5700	0.01217154785990715
0	5688	-0.002148945815861225
0	5726	0.006807026453316212
0	5710	-0.0028640301898121834
0	5756	0.008225939236581326
0	5748	-0.0014284354401752353
0	5904	0.027806494385004044
0	6018	0.02025490440428257
0	6022	0.0007076974143274128
0	5940	-0.014452395960688591
0	5914	-0.004570169374346733
0	5836	-0.013667745515704155
0	5554	-0.04924789443612099
0	5326	-0.039902463555336
0	5130	-0.03470255061984062
0	4936	-0.034766193479299545
0	4836	-0.01795525662600994
0	4936	0.017895063385367393
0	4932	-0.000717120070476085
0	4912	-0.0035953547339886427
0	5032	0.021645542234182358
0	5132	0.01809583604335785
0	5096	-0.006530256941914558
0	5152	0.0101866340264678
0	5204	0.009482129476964474
0	5332	0.02339494787156582
0	5290	-0.007687801960855722
0	5344	0.009901595301926136
0	5390	0.008445635437965393
0	5412	0.004045902751386166
0	5422	0.001841530203819275
0	5496	0.013650617562234402
0	5482	-0.0025856017600744963
0	5430	-0.009618110954761505
0	5510	0.014822683297097683
0	5482	-0.005195833742618561
0	5512	0.005576138850301504
0	5516	0.0007452953141182661
0	5514	-0.0003738131490536034
0	5494	-0.0037499999161809683
0	5534	0.007520964369177818
0	5530	-0.0007538920035585761
0	5534	0.0007553440518677235
0	5522	-0.00226631760597229
0	5552	0.0056588114239275455
0	5216	-0.06321097165346146
0	5566	0.06572934240102768
0	5060	-0.0945935770869255
0	5672	0.11432129144668579
0	5902	0.04276682808995247
0	5686	-0.0399186834692955
0	5624	-0.011412163265049458
0	5570	-0.009909710846841335
0	5586	0.002927721943706274
0	5544	-0.007664979435503483
0	5578	0.006192176137119532
0	5436	-0.025822876021265984
0	5624	0.034157805144786835
0	5646	0.003990422934293747
0	5682	0.00651969201862812
0	5640	-0.007593929767608643
0	5606	-0.006139400415122509
0	5602	-0.000721804506611079
0	5608	0.001081925816833973
0	5590	-0.00324230850674212
0	5612	0.003960919100791216
0	5568	-0.007915661670267582
0	5620	0.009351733140647411
0	5528	-0.016535066068172455
0	5852	0.0582273043692112
0	5682	-0.030485982075333595
0	5572	-0.01970878802239895
0	5592	0.003582517383620143
0	5506	-0.015399491414427757
0	5366	-0.02507133223116398
0	5442	0.013625280931591988
0	5190	-0.04511762782931328
0	5574	0.0689052939414978
0	5478	-0.01717352494597435
0	5478	0.0
0	5302	-0.03160125017166138
0	5582	0.05039052665233612
0	7110	0.2750575840473175
0	7416	0.05457918345928192
1	5748	-0.2943079471588135
0	4332	-0.24954472482204437
0	5188	0.15196704864501953
0	5486	0.05298217386007309
0	5514	0.004982265643775463
0	5542	0.004986169282346964
0	5560	0.0032080605160444975
0	5598	0.006775792222470045
0	5616	0.0032097387593239546
0	5634	0.00320947146974504
0	5630	-0.0007131057209335268
0	5666	0.0064164260402321815
0	5674	0.0014254151610657573
0	5700	0.004629684612154961
0	5708	0.0014238421572372317
0	5726	0.003200227627530694
0	5758	0.00569354509934783
0	5800	0.007469411473721266
0	5844	0.007814534939825535
0	5872	0.004965478088706732
0	5944	0.012740807607769966
0	6002	0.010228555649518967
0	6076	0.01300740521401167
0	6088	0.002098415745422244
0	6130	0.007322516292333603
0	6056	-0.012852874584496021
0	5946	-0.01904190331697464
0	5706	-0.04139215499162674
0	5428	-0.047911759465932846
0	5212	-0.037589624524116516
0	5032	-0.03173036500811577
0	4974	-0.010267425328493118
0	4962	-0.0021162775810807943
0	4978	0.0028254573699086905
0	4984	0.0010627243900671601
0	5062	0.01385878212749958
0	5020	-0.007483696099370718
0	5126	0.01894819550216198
0	5238	0.02007720060646534
0	5258	0.0035933307372033596
0	5286	0.005042016506195068
0	5382	0.017322683706879616
0	5384	0.0003615067689679563
0	5326	-0.010502045974135399
0	5432	0.019236817955970764
0	5466	0.006180619355291128
0	5492	0.004733813926577568
0	5436	-0.01021239347755909
0	5514	0.014255949296057224
0	5500	-0.0025639147497713566
0	5534	0.006240822374820709
0	5542	0.0014721216866746545
0	5510	-0.005905148573219776
0	5538	0.005185057409107685
0	5554	0.002972983056679368
0	5560	0.0011188602074980736
0	5538	-0.004115174990147352
0	5530	-0.0015002437867224216
0	5500	-0.00563211040571332
0	5588	0.016513416543602943
0	5550	-0.007114062085747719
0	5576	0.004851832520216703
0	5592	0.00297460425645113
0	5552	-0.00740759028121829
0	5562	0.0018453588709235191
0	5576	0.0025743497535586357
0	5570	-0.0010998276993632317
0	5566	-0.0007307626656256616
0	5586	0.0036440494004637003
0	5594	0.0014545454178005457
0	5578	-0.0029031787998974323
0	5578	0.0
0	5580	0.00036182941403239965
0	5562	-0.0032526201102882624
0	5576	0.0025262245908379555
0	5572	-0.0007211538613773882
0	5572	0.0
0	5582	0.0018008715705946088
0	5580	-0.0003598589391913265
0	5578	-0.00035971656325273216
0	5586	0.0014381936052814126
0	5572	-0.002516054781153798
0	5574	0.00035937182838097215
0	5574	0.0
0	5666	0.016521207988262177
0	5684	0.003230244619771838
0	5748	0.01147680077701807
0	5796	0.008596809580922127
0	5720	-0.013590033166110516
0	5646	-0.013215072453022003
0	5580	-0.011782348155975342
0	5576	-0.0007139542140066624
0	5478	-0.01749187894165516
0	5434	-0.007858826778829098
0	5420	-0.0025022937916219234
0	5434	0.0025044125504791737
0	5472	0.0068034520372748375
0	5470	-0.0003582859644666314
0	5352	-0.021150996908545494
0	5524	0.030873430892825127
0	6720	0.21476800739765167
0	7510	0.140898659825325
1	5648	-0.3283217251300812
0	4182	-0.2583927810192108
0	4884	0.12474381923675537
0	5454	0.10170459002256393
0	5504	0.008927721530199051
0	5550	0.008216829039156437
0	5562	0.002143929013982415
0	5592	0.005360397510230541
0	5600	0.0014293200802057981
0	5614	0.0025011016987264156
0	5634	0.003572109155356884
0	5656	0.003927916754037142
0	5686	0.005353637505322695
0	5694	0.0014274667482823133
0	5708	0.00249791843816638
0	5706	-0.0003569303953554481
0	5764	0.010356525890529156
0	5780	0.002856224775314331
0	5798	0.003210692899301648
0	5854	0.009975891560316086
0	5918	0.011382229626178741
0	6002	0.014900309033691883
0	6048	0.008132381364703178
0	6058	0.0017613902455195785
0	6080	0.003860913449898362
0	6052	-0.004896474536508322
0	5926	-0.021959636360406876
0	5770	-0.027097761631011963
0	5506	-0.04579252377152443
0	5238	-0.04681495577096939
0	5020	-0.03859135881066322
0	4878	-0.02523098699748516
0	4878	0.0
0	4872	-0.0010617589578032494
0	4908	0.006392499431967735
0	4964	0.009979091584682465
0	5004	0.007152819540351629
0	5068	0.011482704430818558
0	5116	0.00863910187035799
0	5204	0.01588447578251362
0	5258	0.009771397337317467
0	5286	0.005078167654573917
0	5340	0.009815564379096031
0	5408	0.012386307120323181
0	5418	0.0018246843246743083
0	5426	0.0014623267343267798
0	5486	0.010986194014549255
0	5478	-0.0014673155965283513
0	5490	0.002205044496804476
0	5506	0.0029456166084855795
0	5484	-0.004058890510350466
0	5498	0.0025898427702486515
0	5524	0.004824702627956867
0	5524	0.0
0	5526	0.00037357574910856783
0	5526	0.0
0	5538	0.0022566288243979216
0	5524	-0.002639152342453599
0	5558	0.006419293116778135
0	5566	0.0015099277952685952
0	5546	-0.0037670456804335117
0	5578	0.006007434334605932
0	5556	-0.004112097900360823
0	5562	0.001116763916797936
0	5586	0.004448013845831156
0	5588	0.00036912172799929976
0	5594	0.0011031304020434618
0	5552	-0.007694092579185963
0	5574	0.004018362611532211
0	5576	0.0003642898809630424
0	5566	-0.0018173448042944074
0	5570	0.0007255841046571732
0	5576	0.0010865103686228395
0	5578	0.00036165493656881154
0	5572	-0.001083854236640036
0	5584	0.0021657003089785576
0	5566	-0.003245465224608779
0	5568	0.00036043397267349064
0	5586	0.0032421527430415154
0	5590	0.0007200633408501744
0	5618	0.005037904251366854
0	5654	0.006472103763371706
0	5714	0.010776765644550323
0	5746	0.005741077475249767
0	5740	-0.001075024832971394
0	5656	-0.015031136572360992
0	5602	-0.009655386209487915
0	5556	-0.008221822790801525
0	5524	-0.005718438420444727
0	5464	-0.010724244639277458
0	5418	-0.008226919919252396
0	5396	-0.0039376188069581985
0	5442	0.008242151699960232
0	5464	0.003944584634155035
0	5434	-0.005382131319493055
0	5388	-0.008260110393166542
0	6096	0.12728624045848846
0	7258	0.20828105509281158
0	6882	-0.06671556085348129
1	4664	-0.3905296325683594
0	4566	-0.017347997054457664
0	5276	0.12643049657344818
0	5528	0.04495237395167351
0	5564	0.006423600483685732
0	5568	0.0007137928623706102
0	5606	0.0067811934277415276
0	5632	0.004639156628400087
0	5594	-0.006777646020054817
0	5640	0.008203250356018543
0	5648	0.0014261944452300668
0	5670	0.003920683637261391
0	5656	-0.002494209911674261
0	5682	0.004632048774510622
0	5722	0.007127583958208561
0	5708	-0.002495009917765856
0	5720	0.0021389867179095745
0	5766	0.008196331560611725
0	5792	0.004628201015293598
0	5826	0.006043799687176943
0	5876	0.008872064761817455
0	5918	0.007434417959302664
0	6002	0.014825098216533661
0	6016	0.0024620722979307175
0	6024	0.0014021804090589285
0	5998	-0.004542225040495396
0	5884	-0.01985071413218975
0	5732	-0.026391638442873955
0	5510	-0.038627058267593384
0	5248	-0.04605378955602646
0	5082	-0.029461180791258812
0	4962	-0.021244702860713005
0	4896	-0.011657345108687878
0	4936	0.0070808990858495235
0	4956	0.0035528605803847313
0	5046	0.016045641154050827
0	5082	0.006438228767365217
0	5140	0.010405205190181732
0	5186	0.00827675499022007
0	5258	0.012986700981855392
0	5280	0.003977293148636818
0	5320	0.007247514557093382
0	5370	0.009078583680093288
0	5410	0.007275461219251156
0	5446	0.006558731198310852
0	5480	0.006204757373780012
0	5508	0.005116896703839302
0	5508	0.0
0	5518	0.0018327102297917008
0	5516	-0.00036715660826303065
0	5540	0.004414253402501345
0	5542	0.00036861374974250793
0	5542	0.0
0	5544	0.0003705167328007519
0	5540	-0.0007431997219100595
0	5562	0.004099888261407614
0	5542	-0.0037372931838035583
0	5540	-0.00037452715332619846
0	5570	0.0056246486492455006
0	5556	-0.0026238521095365286
0	5606	0.009352903813123703
0	5562	-0.008203751407563686
0	5578	0.0029720994643867016
0	5560	-0.0033295515459030867
0	5584	0.004422387108206749
0	5582	-0.00036711618304252625
0	5572	-0.0018295806366950274
0	5568	-0.000729651830624789
0	5594	0.004730426240712404
0	5582	-0.002177884802222252
0	5590	0.0014490828616544604
0	5596	0.0010847817175090313
0	5592	-0.0007219869294203818
0	5598	0.0010815358255058527
0	5592	-0.001080315443687141
0	5582	-0.0017989494372159243
0	5592	0.0017978496616706252
0	5588	-0.0007187780574895442
0	5602	0.0025145183317363262
0	5602	0.0
0	5598	-0.0007177033112384379
0	5628	0.005380908492952585
0	5674	0.008246486075222492
0	5686	0.0021495618857443333
0	5734	0.00859096273779869
0	5762	0.005005601327866316
0	5678	-0.014998928643763065
0	5618	-0.010704855434596539
0	5592	-0.004636619705706835
0	5542	-0.008915410377085209
0	5502	-0.007132922299206257
0	5444	-0.010349133983254433
0	5456	0.002142704091966152
0	5476	0.003573768539354205
0	5528	0.009296449832618237
0	5464	-0.011445604264736176
0	5384	-0.014317075721919537
0	6078	0.12434007227420807
0	7166	0.19433891773223877
0	6874	-0.051673490554094315
1	4960	-0.3361472487449646
0	4704	-0.04512656852602959
0	5380	0.11979018896818161
0	5562	0.03229164332151413
0	5602	0.007098576053977013
0	5628	0.004613801371306181
0	5630	0.000354811258148402
0	5658	0.004966241307556629
0	5640	-0.0031912631820887327
0	5644	0.000709010346326977
0	5686	0.007442761212587357
0	5682	-0.000708466162905097
0	5692	0.0017706010257825255
0	5708	0.002832660684362054
0	5728	0.0035403661895543337
0	5748	0.0035404914524406195
0	5748	0.0
0	5782	0.006016847211867571
0	5828	0.00813257321715355
0	5872	0.007768178824335337
0	5920	0.008457951247692108
0	5988	0.011952751316130161
0	6028	0.007008690387010574
0	6080	0.009080960415303707
0	6066	-0.002436307957395911
0	6018	-0.008327068760991096
0	5962	-0.009683890268206596
0	5812	-0.025852855294942856
0	5576	-0.040737416595220566
0	5360	-0.037629351019859314
0	5140	-0.03866613656282425
0	5048	-0.01615244150161743
0	5010	-0.0066582560539245605
0	5026	0.002809547819197178
0	5038	0.0021137925796210766
0	5090	0.009190201759338379
0	5170	0.014183727093040943
0	5194	0.004266717471182346
0	5244	0.008913503028452396
0	5272	0.005003335420042276
0	5328	0.010028893128037453
0	5362	0.006102011539041996
0	5406	0.007911866530776024
0	5460	0.009726691991090775
0	5486	0.004690205678343773
0	5510	0.0043357303366065025
0	5520	0.0018091469537466764
0	5538	0.0032609482295811176
0	5566	0.005080071743577719
0	5546	-0.003634381340816617
0	5558	0.0021849432960152626
0	5560	0.0003649590362329036
0	5544	-0.002927293535321951
0	5568	0.004403939004987478
0	5570	0.00036814785562455654
0	5554	-0.002954173367470503
0	5580	0.004814279731363058
0	5576	-0.0007424088544212282
0	5560	-0.0029739777091890574
0	5560	0.0
0	5590	0.005569858476519585
0	5560	-0.005554389674216509
0	5600	0.007382525131106377
0	5598	-0.00036779127549380064
0	5602	0.000733012449927628
0	5610	0.0014609915670007467
0	5620	0.0018204766092821956
0	5588	-0.0058096605353057384
0	5608	0.0036224008072167635
0	5596	-0.0021686747204512358
0	5594	-0.0003607416874729097
0	5604	0.001800828380510211
0	5596	-0.0014385728863999248
0	5584	-0.002155404770746827
0	5562	-0.003948643803596497
0	5582	0.003588044550269842
0	5570	-0.002151900203898549
0	5600	0.005378143396228552
0	5592	-0.0014336403692141175
0	5590	-0.00035835441667586565
0	5590	0.0
0	5576	-0.0025073429569602013
0	5578	0.0003581576456781477
0	5578	0.0
0	5582	0.000716127164196223
0	5580	-0.00035803794162347913
0	5608	0.005011753644794226
0	5638	0.005368839483708143
0	5692	0.009660338051617146
0	5738	0.008222704753279686
0	5694	-0.007856861688196659
0	5658	-0.006424365099519491
0	5570	-0.01569485478103161
0	5552	-0.0032108838204294443
0	5510	-0.0074941120110452175
0	5464	-0.00821232981979847
0	5420	-0.007862103171646595
0	5436	0.0028623566031455994
0	5440	0.0007162382826209068
0	5484	0.00788652990013361
0	5366	-0.02116440050303936
0	5732	0.06573512405157089
0	7062	0.2386905997991562
0	7078	0.0028465024661272764
1	5258	-0.3209461271762848
0	4482	-0.13708794116973877
0	5208	0.12909115850925446
0	5454	0.043835680931806564
0	5506	0.00927412137389183
0	5522	0.002855035476386547
0	5556	0.006069405470043421
0	5582	0.004642249085009098
0	5596	0.0024995834100991488
0	5622	0.004641586448997259
0	5612	-0.0017847581766545773
0	5632	0.0035688793286681175
0	5640	0.0014271102845668793
0	5626	-0.002496968023478985
0	5642	0.002853881334885955
0	5676	0.00606630090624094
0	5688	0.002141837263479829
0	5708	0.0035698560532182455
0	5744	0.006423830054700375
0	5778	0.0060606785118579865
0	5820	0.007476679515093565
0	5848	0.0049753012135624886
0	5912	0.011346310377120972
0	5942	0.005303164012730122
0	5954	0.0021149597596377134
0	5946	-0.001405728398822248
0	5892	-0.009463058784604073
0	5726	-0.029001038521528244
0	5542	-0.03214684873819351
0	5328	-0.03772209957242012
0	5158	-0.03027748316526413
0	5044	-0.020315786823630333
0	4962	-0.014564486220479012
0	4980	0.0032017456833273172
0	5010	0.005351282190531492
0	5054	0.007871761918067932
0	5128	0.013275924138724804
0	5136	0.0014389179414138198
0	5196	0.010820819064974785
0	5248	0.00940064899623394
0	5274	0.004710941109806299
0	5312	0.006899306550621986
0	5334	0.004002085886895657
0	5400	0.012028577737510204
0	5422	0.004015038255602121
0	5444	0.004020418506115675
0	5466	0.004026108421385288
0	5446	-0.003665062366053462
0	5486	0.007341874297708273
0	5474	-0.002206044504418969
0	5486	0.002210161881521344
0	5496	0.0018455858808010817
0	5520	0.004439018666744232
0	5502	-0.003337329952046275
0	5512	0.0018591276602819562
0	5510	-0.0003728468145709485
0	5550	0.007477194536477327
0	5534	-0.00299726496450603
0	5530	-0.0007502157241106033
0	5540	0.0018756799399852753
0	5540	0.0
0	5552	0.00224248762242496
0	5562	0.001862844917923212
0	5566	0.0007423721253871918
0	5558	-0.0014793811133131385
0	5566	0.0014744007494300604
0	5548	-0.0033069998025894165
0	5588	0.007330034859478474
0	5560	-0.005116896703839302
0	5548	-0.002188103972002864
0	5556	0.001456080935895443
0	5558	0.00036339848884381354
0	5576	0.0032657210249453783
0	5586	0.0018116380088031292
0	5556	-0.0054288157261908054
0	5588	0.005786060355603695
0	5578	-0.0018065759213641286
0	5558	-0.0036107164341956377
0	5554	-0.0007216569501906633
0	5554	0.0
0	5582	0.005047106184065342
0	5548	-0.00612509623169899
0	5566	0.0032416856847703457
0	5566	0.0
0	5572	0.0010798487346619368
0	5544	-0.005037480965256691
0	5540	-0.0007194934878498316
0	5566	0.004676987882703543
0	5550	-0.002877594204619527
0	5558	0.0014386246912181377
0	5556	-0.00035961734829470515
0	5572	0.002876663114875555
0	5572	0.0
0	5562	-0.0017975912196561694
0	5562	0.0
0	5590	0.0050332555547356606
0	5550	-0.0071893311105668545
0	5584	0.006110858172178268
0	5564	-0.003594708628952503
0	5574	0.0017973112408071756
0	5642	0.012219812721014023
0	5670	0.005029096733778715
0	5718	0.008615531958639622
0	5714	-0.0007173515041358769
0	5654	-0.010752045549452305
0	5558	-0.017193207517266273
0	5530	-0.005015584174543619
0	5490	-0.007167174480855465
0	5434	-0.010038120672106743
0	5402	-0.005740184802561998
0	5390	-0.0021545274648815393
0	5428	0.0068305195309221745
0	5452	0.004317115992307663
0	5340	-0.02016032300889492
0	5330	-0.001802473096176982
0	6242	0.1646248996257782
0	7342	0.19773030281066895
0	7022	-0.05690709874033928
1	4776	-0.39599886536598206
0	4736	-0.0070847454480826855
0	5364	0.11177294701337814
0	5414	0.00890926830470562
0	5450	0.00642069848254323
0	5480	0.005354465916752815
0	5504	0.004285662900656462
0	5532	0.00500166742131114
0	5556	0.004288624506443739
0	5568	0.0021442356519401073
0	5600	0.005718506406992674
0	5626	0.004645290318876505
0	5608	-0.003214974654838443
0	5634	0.004644792526960373
0	5662	0.00500315660610795
0	5662	0.0
0	5712	0.008939959108829498
0	5728	0.0028597984928637743
0	5766	0.0067851487547159195
0	5792	0.004635958466678858
0	5852	0.010679197497665882
0	5906	0.009587500244379044
0	5954	0.008496878668665886
0	5988	0.005998659413307905
0	5992	0.0007034079753793776
0	5956	-0.006310696713626385
0	5870	-0.015021484345197678
0	5724	-0.025421662256121635
0	5530	-0.033881332725286484
0	5314	-0.038125719875097275
0	5106	-0.03708634525537491
0	4998	-0.019218677654862404
0	4942	-0.009949777275323868
0	4984	0.007481030188500881
0	5032	0.008571632206439972
0	5052	0.0035804223734885454
0	5102	0.008973975665867329
0	5156	0.009715259075164795
0	5226	0.012622316367924213
0	5258	0.00578166963532567
0	5300	0.007602635771036148
0	5338	0.006891048979014158
0	5338	0.0
0	5406	0.012373085133731365
0	5412	0.0010932545410469174
0	5448	0.006569502875208855
0	5452	0.0007308961939997971
0	5484	0.005856443662196398
0	5502	0.0032991606276482344
0	5520	0.003304490353912115
0	5546	0.004781110677868128
0	5532	-0.002579282270744443
0	5554	0.004062488675117493
0	5576	0.004072515293955803
0	5580	0.0007423445349559188
0	5584	0.0007442414062097669
0	5560	-0.004475774709135294
0	5576	0.0029896111227571964
0	5588	0.0022442771587520838
0	5594	0.0011217329883947968
0	5610	0.002986077219247818
0	5592	-0.0033488371409475803
0	5622	0.0055609107948839664
0	5600	-0.004060938488692045
0	5628	0.005148951895534992
0	5646	0.003297991817817092
0	5626	-0.003651189850643277
0	5644	0.003275625640526414
0	5634	-0.001814421033486724
0	5638	0.000723981880582869
0	5660	0.003972792532294989
0	5630	-0.005405730102211237
0	5620	-0.001798755256459117
0	5654	0.006105444859713316
0	5670	0.0028688914608210325
0	5646	-0.0042967121116817
0	5668	0.003934004344046116
0	5664	-0.0007143537513911724
0	5656	-0.0014271781546995044
0	5666	0.0017823405796661973
0	5666	0.0
0	5644	-0.0039149620570242405
0	5656	0.0021340162493288517
0	5652	-0.0007109089056029916
0	5644	-0.0014211778761819005
0	5642	-0.0003551598929334432
0	5648	0.0010651139309629798
0	5652	0.0007097063935361803
0	5664	0.0021281626541167498
0	5642	-0.003899879287928343
0	5636	-0.0010633019264787436
0	5646	0.0017718977760523558
0	5680	0.006022531073540449
0	5650	-0.0053121792152523994
0	5706	0.009913141839206219
0	5734	0.004954291041940451
0	5772	0.006720192264765501
0	5828	0.00989492516964674
0	5746	-0.01447331253439188
0	5668	-0.013758230954408646
0	5608	-0.010581388138234615
0	5594	-0.0024697454646229744
0	5510	-0.0148216113448143
0	5452	-0.010240594856441021
0	5446	-0.0010606328723952174
0	5454	0.0014160461723804474
0	5500	0.008151499554514885
0	5490	-0.001773825497366488
0	5310	-0.03196173906326294
0	5828	0.09216753393411636
0	7364	0.27303752303123474
0	7610	0.04329308867454529
1	5676	-0.3364804685115814
0	4270	-0.24458980560302734
0	5206	0.16414332389831543
0	5444	0.041844435036182404
0	5492	0.008449018001556396
0	5546	0.009513854049146175
0	5552	0.0010577533394098282
0	5590	0.006703516468405724
0	5606	0.00282339658588171
0	5622	0.002823895076289773
0	5632	0.0017651835223659873
0	5644	0.0021188186947256327
0	5660	0.002825191244482994
0	5688	0.004945423919707537
0	5690	0.00035334023414179683
0	5732	0.007423730101436377
0	5730	-0.0003537110169418156
0	5778	0.008489865809679031
0	5822	0.007777332328259945
0	5874	0.009179818443953991
0	5906	0.005639826878905296
0	5988	0.014418511651456356
0	6036	0.00841367244720459
0	6086	0.008734133094549179
0	6088	0.0003480843733996153
0	6056	-0.005550416186451912
0	5960	-0.01659693568944931
0	5820	-0.02411353960633278
0	5560	-0.04478434473276138
0	5284	-0.04803787171840668
0	5076	-0.03669768199324608
0	4920	-0.027620723471045494
0	4876	-0.007760688662528992
0	4854	-0.0038878873456269503
0	4892	0.006738863419741392
0	4960	0.012101941742002964
0	5012	0.009286709129810333
0	5092	0.014333321712911129
0	5102	0.0017970098415389657
0	5182	0.014419610612094402
0	5214	0.005783132277429104
0	5266	0.009421314112842083
0	5338	0.013074744492769241
0	5336	-0.00036389660090208054
0	5384	0.008752202615141869
0	5408	0.00438425550237298
0	5412	0.0007321537123061717
0	5428	0.0029343082569539547
0	5414	-0.0025730247143656015
0	5454	0.007369920611381531
0	5448	-0.0011083470890298486
0	5484	0.006668889429420233
0	5482	-0.00037165050162002444
0	5476	-0.001118790707550943
0	5502	0.004866544157266617
0	5494	-0.0015028930502012372
0	5470	-0.004524602554738522
0	5506	0.006807866971939802
0	5510	0.0007579298689961433
0	5532	0.004169931169599295
0	5502	-0.005677373614162207
0	5534	0.006039634812623262
0	5548	0.002632172778248787
0	5526	-0.004118924494832754
0	5532	0.0011186515912413597
0	5538	0.0011142200091853738
0	5554	0.0029606600292026997
0	5550	-0.0007376988651230931
0	5562	0.0022068831603974104
0	5562	0.0
0	5552	-0.0018296476919203997
0	5580	0.005112474784255028
0	5556	-0.0043737622909247875
0	5576	0.0036399816162884235
0	5572	-0.0007269378984346986
0	5562	-0.0018152773845940828
0	5552	-0.001813587499782443
0	5572	0.0036241074558347464
0	5618	0.008328204043209553
0	5632	0.002531553851440549
0	5686	0.009754100814461708
0	5724	0.006854174192994833
0	5722	-0.00036022620042786
0	5644	-0.014028607867658138
0	5560	-0.015092532150447369
0	5542	-0.0032329908572137356
0	5488	-0.00969618558883667
0	5410	-0.01400409359484911
0	5386	-0.0043114288710057735
0	5424	0.0068315016105771065
0	5406	-0.0032380700577050447
0	5432	0.004679906647652388
0	5426	-0.0010806397767737508
0	5338	-0.01586099900305271
0	6158	0.1479628086090088
0	7432	0.2290213704109192
0	7068	-0.06470037996768951
1	4772	-0.4044817090034485
0	4484	-0.050969239324331284
0	5180	0.12396400421857834
0	5492	0.055696386843919754
0	5516	0.00428586732596159
0	5542	0.004644792526960373
0	5562	0.00357321510091424
0	5608	0.008219080045819283
0	5588	-0.0035727473441511393
0	5616	0.0050010718405246735
0	5612	-0.0007141667301766574
0	5648	0.006425970699638128
0	5654	0.0010708039626479149
0	5656	0.00035688793286681175
0	5674	0.0032125646248459816
0	5688	0.0024994048289954662
0	5742	0.009642512537539005
0	5768	0.0046399845741689205
0	5832	0.011407386511564255
0	5856	0.004270412027835846
0	5916	0.010652778670191765
0	5998	0.014515329152345657
0	6054	0.009877240285277367
0	6102	0.0084349624812603
0	6086	-0.002800238085910678
0	6000	-0.014994071796536446
0	5844	-0.027108119800686836
0	5624	-0.038117680698633194
0	5328	-0.051444265991449356
0	5096	-0.0408187210559845
0	4954	-0.025276198983192444
0	4850	-0.01849217712879181
0	4836	-0.0024839430116117
0	4890	0.009600454941391945
0	4918	0.00499583687633276
0	4966	0.008594859391450882
0	5024	0.010421283543109894
0	5068	0.007931357249617577
0	5152	0.01519097201526165
0	5200	0.00870343018323183
0	5252	0.00945248268544674
0	5326	0.0134810172021389
0	5350	0.004380787722766399
0	5406	0.01024078018963337
0	5414	0.0014652014942839742
0	5434	0.0036688270047307014
0	5440	0.0011023603146895766
0	5448	0.0014725372893735766
0	5488	0.007377170026302338
0	5496	0.0014785609673708677
0	5506	0.0018523092148825526
0	5518	0.0022284123115241528
0	5518	0.0
0	5504	-0.002616268116980791
0	5532	0.0052521005272865295
0	5550	0.0033880863338708878
0	5556	0.0011325598461553454
0	5538	-0.003403847571462393
0	5552	0.002648873021826148
0	5552	0.0
0	5586	0.006405506283044815
0	5542	-0.008256708271801472
0	5576	0.006352685857564211
0	5556	-0.0037197305355221033
0	5566	0.0018522178288549185
0	5578	0.0022138042841106653
0	5580	0.0003675839980132878
0	5590	0.0018316806526854634
0	5582	-0.0014606892364099622
0	5570	-0.0021853146608918905
0	5622	0.009448476135730743
0	5656	0.006164035759866238
0	5702	0.008322980254888535
0	5742	0.007222041487693787
0	5776	0.0061263469979166985
0	5718	-0.010428153909742832
0	5638	-0.014359218999743462
0	5590	-0.00860533770173788
0	5544	-0.008239789865911007
0	5494	-0.00895329937338829
0	5438	-0.010027814656496048
0	5390	-0.008598759770393372
0	5438	0.00860533770173788
0	5468	0.005380908492952585
0	5466	-0.0003588044492062181
0	5372	-0.016870468854904175
0	5912	0.0970187708735466
0	7164	0.22446127235889435
0	7184	0.0035511364694684744
1	4744	-0.42909398674964905
0	4548	-0.03463223949074745
0	5256	0.12586964666843414
0	5550	0.05235664173960686
0	5598	0.0085493428632617
0	5600	0.0003561338235158473
0	5614	0.0024924336466938257
0	5644	0.005339788272976875
0	5632	-0.0021351047325879335
0	5654	0.0039133839309215546
0	5684	0.005334155168384314
0	5680	-0.0007107405108399689
0	5678	-0.0003552481939550489
0	5702	0.004262423142790794
0	5710	0.0014208076754584908
0	5718	0.0014210769440978765
0	5746	0.004975477699190378
0	5818	0.012791965156793594
0	5828	0.001774769858457148
0	5880	0.009215827099978924
0	5942	0.010966334491968155
0	5986	0.0077620577067136765
0	6058	0.012660750187933445
0	6078	0.003503158688545227
0	6084	0.0010470350971445441
0	6000	-0.014606155455112457
0	5902	-0.016987936571240425
0	5674	-0.03940228372812271
0	5384	-0.05018574744462967
0	5160	-0.03916631639003754
0	5012	-0.026186656206846237
0	4922	-0.015899186953902245
0	4892	-0.005288083106279373
0	4900	0.0014131779316812754
0	4968	0.01205816213041544
0	5012	0.007831503637135029
0	5068	0.010002261959016323
0	5152	0.01505232509225607
0	5182	0.005391675513237715
0	5242	0.010812499560415745
0	5286	0.007948838174343109
0	5332	0.008330114185810089
0	5376	0.007984708063304424
0	5444	0.0123625872656703
0	5460	0.0029133991338312626
0	5486	0.004741468466818333
0	5526	0.0073048691265285015
0	5526	0.0
0	5536	0.0018319267546758056
0	5532	-0.0007340796291828156
0	5568	0.006620811764150858
0	5544	-0.004424017854034901
0	5550	0.0011090162442997098
0	5560	0.0018541638273745775
0	5554	-0.0011160714784637094
0	5574	0.0037325038574635983
0	5556	-0.0033681795466691256
0	5572	0.0030004126019775867
0	5568	-0.0007505816756747663
0	5572	0.0007497188053093851
0	5594	0.004112866707146168
0	5592	-0.0003725458518601954
0	5606	0.002597017213702202
0	5584	-0.004063088446855545
0	5616	0.005885165650397539
0	5610	-0.0010991024319082499
0	5584	-0.0047454494051635265
0	5610	0.004730598535388708
0	5662	0.009434989653527737
0	5670	0.0014473351184278727
0	5696	0.004691729322075844
0	5754	0.010440417565405369
0	5756	0.00035910512087866664
0	5664	-0.016481351107358932
0	5592	-0.012881525792181492
0	5596	0.0007150774472393095
0	5548	-0.00857530813664198
0	5470	-0.013933049514889717
0	5438	-0.005718029569834471
0	5446	0.0014303423231467605
0	5478	0.005724302958697081
0	5492	0.002505727345123887
0	5458	-0.006087226327508688
0	5488	0.005374032538384199
0	6532	0.18709677457809448
0	7312	0.13897302746772766
0	6644	-0.1178019717335701
1	4580	-0.3616738021373749
0	4764	0.032430145889520645
0	5448	0.12112769484519958
0	5598	0.026582548394799232
0	5576	-0.0038986816070973873
0	5614	0.006734722759574652
0	5634	0.003544423496350646
0	5620	-0.002480363706126809
0	5654	0.0060235983692109585
0	5676	0.003896610112860799
0	5688	0.002124269725754857
0	5656	-0.005662113428115845
0	5684	0.004954524803906679
0	5710	0.0046002501621842384
0	5702	-0.0014153446536511183
0	5716	0.0024776130449026823
0	5758	0.007434593513607979
0	5778	0.0035383200738579035
0	5820	0.0074223303236067295
0	5860	0.0070595708675682545
0	5898	0.006694304756820202
0	5964	0.011597801931202412
0	6016	0.00910959579050541
0	6040	0.004190480802208185
0	6044	0.0006961364415474236
0	6006	-0.006592186633497477
0	5896	-0.019022366032004356
0	5660	-0.040715862065553665
0	5426	-0.04057428240776062
0	5224	-0.03541167452931404
0	5056	-0.0296977199614048
0	4956	-0.017627771943807602
0	4958	0.00035215815296396613
0	4948	-0.0017658693250268698
0	5004	0.00992684904485941
0	5048	0.007826117798686028
0	5134	0.015348006971180439
0	5164	0.005369928665459156
0	5218	0.009692241437733173
0	5284	0.011877055279910564
0	5310	0.0046898676082491875
0	5358	0.008677939884364605
0	5372	0.002535619307309389
0	5420	0.008709958754479885
0	5454	0.006180394906550646
0	5452	-0.000364099774742499
0	5478	0.004740891978144646
0	5514	0.006575502455234528
0	5524	0.0018294689944013953
0	5546	0.004032110329717398
0	5534	-0.0022035599686205387
0	5562	0.005153121426701546
0	5538	-0.004427880514413118
0	5534	-0.0007401559269055724
0	5528	-0.0011137097608298063
0	5554	0.0048415325582027435
0	5548	-0.0011204202892258763
0	5548	0.0
0	5578	0.005618188064545393
0	5578	0.0
0	5576	-0.0003733665216714144
0	5588	0.002232973463833332
0	5566	-0.004077799152582884
0	5596	0.005539825186133385
0	5588	-0.001471417723223567
0	5596	0.001466168207116425
0	5592	-0.0007306381012313068
0	5622	0.00546454731374979
0	5670	0.008719028905034065
0	5700	0.005434520076960325
0	5714	0.0025297547690570354
0	5782	0.012257552705705166
0	5730	-0.009349603205919266
0	5674	-0.0100472467020154
0	5612	-0.011106864549219608
0	5604	-0.001431792974472046
0	5524	-0.01430495735257864
0	5464	-0.010725777596235275
0	5474	0.0017881622770801187
0	5522	0.008585738018155098
0	5526	0.0007155805942602456
0	5528	0.0003578073519747704
0	5436	-0.016462475061416626
0	5836	0.07161955535411835
0	7182	0.2405662089586258
0	7154	-0.004955518525093794
1	5086	-0.36257800459861755
0	4524	-0.09880102425813675
0	5212	0.12168232351541519
0	5580	0.06522663682699203
0	5604	0.004253861028701067
0	5640	0.0063797361217439175
0	5646	0.0010629628086462617
0	5672	0.004603997338563204
0	5664	-0.0014159793499857187
0	5674	0.0017691808752715588
0	5710	0.006366122979670763
0	5704	-0.0010602829279378057
0	5704	0.0
0	5720	0.002825490664690733
0	5724	0.0007062895456328988
0	5766	0.007415603380650282
0	5778	0.0021189432591199875
0	5798	0.0035305749624967575
0	5828	0.0052920011803507805
0	5874	0.008104108273983002
0	5930	0.00985025241971016
0	5992	0.010879738256335258
0	6036	0.007697331719100475
0	6066	0.005231037270277739
0	6084	0.00312872976064682
0	6062	-0.003811679780483246
0	5996	-0.011399882845580578
0	5832	-0.028235942125320435
0	5610	-0.038222700357437134
0	5350	-0.04517287388443947
0	5172	-0.03125256299972534
0	5060	-0.019654640927910805
0	5002	-0.010146482847630978
0	5034	0.005604923237115145
0	5046	0.00210856762714684
0	5078	0.005641284864395857
0	5160	0.014503690414130688
0	5216	0.009933422319591045
0	5256	0.007114483509212732
0	5292	0.006418561562895775
0	5344	0.009292352013289928
0	5392	0.008596296422183514
0	5416	0.004306168761104345
0	5450	0.006110931746661663
0	5490	0.007200979627668858
0	5500	0.0018027762416750193
0	5528	0.00505585502833128
0	5524	-0.0007233534706756473
0	5568	0.0079700518399477
0	5530	-0.006894049234688282
0	5568	0.006908420938998461
0	5560	-0.0014576020184904337
0	5550	-0.001826795400120318
0	5560	0.001832217676565051
0	5554	-0.0011027384316548705
0	5560	0.0011063306592404842
0	5574	0.0025894276332110167
0	5532	-0.0077885473147034645
0	5588	0.010404023341834545
0	5598	0.0018581144977360964
0	5562	-0.006678952369838953
0	5572	0.0018508007051423192
0	5564	-0.001475978409871459
0	5574	0.0018386183073744178
0	5554	-0.0036651068367064
0	5580	0.004749899730086327
0	5578	-0.00036426333826966584
0	5570	-0.0014533650828525424
0	5582	0.002175384433940053
0	5578	-0.0007237024838104844
0	5590	0.002167369006201625
0	5592	0.0003606939862947911
0	5576	-0.0028820866718888283
0	5586	0.0017995752859860659
0	5596	0.0017981084529310465
0	5588	-0.0014375734608620405
0	5556	-0.005747264251112938
0	5582	0.00466886954382062
0	5582	0.0
0	5624	0.007538770325481892
0	5668	0.007893320173025131
0	5700	0.00573716638609767
0	5734	0.006090642884373665
0	5666	-0.012167916633188725
0	5578	-0.015736766159534454
0	5554	-0.004291231743991375
0	5520	-0.006079461891204119
0	5446	-0.01323603093624115
0	5394	-0.00930576678365469
0	5388	-0.0010749861830845475
0	5424	0.006458016578108072
0	5406	-0.0032316751312464476
0	5424	0.003234888892620802
0	5282	-0.025541100651025772
0	5930	0.11675816774368286
0	7136	0.21681028604507446
0	7136	0.0
1	5314	-0.3215521275997162
0	4600	-0.12619894742965698
0	5334	0.13048888742923737
0	5428	0.01673530973494053
0	5446	0.0032077175565063953
0	5460	0.0024970569647848606
0	5502	0.00749634113162756
0	5502	0.0
0	5538	0.006432247348129749
0	5542	0.0007149070152081549
0	5574	0.00571973342448473
0	5586	0.002145002130419016
0	5596	0.0017874592449516058
0	5614	0.003217963268980384
0	5618	0.0007153332117013633
0	5646	0.005009780637919903
0	5656	0.001790147041901946
0	5686	0.00537076173350215
0	5708	0.00393602205440402
0	5728	0.0035749184899032116
0	5782	0.00964033231139183
0	5852	0.012471790425479412
0	5886	0.006041294429451227
0	5930	0.007795153185725212
0	5952	0.0038859646301716566
0	5932	-0.003521374659612775
0	5828	-0.018256718292832375
0	5696	-0.023098191246390343
0	5502	-0.033993739634752274
0	5292	-0.037151921540498734
0	5160	-0.023609371855854988
0	5006	-0.02756958082318306
0	5002	-0.0007143622497096658
0	4984	-0.003220996120944619
0	5006	0.003947226796299219
0	5046	0.007195711135864258
0	5132	0.015509281307458878
0	5182	0.009037123993039131
0	5234	0.009416763670742512
0	5244	0.0018142454791814089
0	5314	0.01272264588624239
0	5304	-0.001820388250052929
0	5356	0.0094822458922863
0	5380	0.00438281474635005
0	5400	0.0036575552076101303
0	5438	0.006958602461963892
0	5422	-0.0029336626175791025
0	5458	0.006610194221138954
0	5448	-0.001838731113821268
0	5478	0.005524997599422932
0	5464	-0.0025822953321039677
0	5500	0.006653196178376675
0	5494	-0.0011112757492810488
0	5492	-0.000371323898434639
0	5534	0.007818996906280518
0	5520	-0.0026131102349609137
0	5524	0.0007485216483473778
0	5530	0.0011249156668782234
0	5526	-0.0007507225382141769
0	5534	0.0015012196963652968
0	5548	0.002623163629323244
0	5550	0.0003738317755050957
0	5546	-0.000745137978810817
0	5548	0.00037131470162421465
0	5552	0.0007400463218800724
0	5538	-0.0025814699474722147
0	5538	0.0
0	5556	0.003300814190879464
0	5550	-0.0010977617930620909
0	5572	0.004017384257167578
0	5548	-0.004373868461698294
0	5570	0.0040036882273852825
0	5544	-0.004724008962512016
0	5564	0.0036297200713306665
0	5534	-0.005438526161015034
0	5562	0.005071851424872875
0	5588	0.00470605306327343
0	5550	-0.0068711950443685055
0	5560	0.0018072071252390742
0	5564	0.0007223954889923334
0	5574	0.001805054140277207
0	5568	-0.0010823161574080586
0	5548	-0.0036062460858374834
0	5574	0.004686598666012287
0	5566	-0.0014413201715797186
0	5588	0.003962869290262461
0	5564	-0.004321365617215633
0	5536	-0.005040382966399193
0	5582	0.008280331268906593
0	5570	-0.00215936079621315
0	5552	-0.0032383420038968325
0	5558	0.001079421490430832
0	5558	0.0
0	5578	0.0035976397339254618
0	5572	-0.001079097855836153
0	5562	-0.0017982808640226722
0	5602	0.007192088756710291
0	5630	0.005032531917095184
0	5650	0.0035930725280195475
0	5728	0.014004596509039402
0	5662	-0.01183899026364088
0	5608	-0.00967984739691019
0	5528	-0.014337260276079178
0	5540	0.002150794491171837
0	5452	-0.01577475666999817
0	5380	-0.012912945821881294
0	5380	0.0
0	5410	0.005392967723309994
0	5452	0.0075564938597381115
0	5444	-0.001440265099518001
0	5310	-0.02414182387292385
0	5446	0.024541057646274567
0	6766	0.23836755752563477
0	7486	0.12907235324382782
0	6670	-0.144629567861557
1	4174	-0.4395294785499573
0	5050	0.15554898977279663
0	5372	0.057351160794496536
0	5432	0.01069696620106697
0	5478	0.008208324201405048
0	5510	0.005713265389204025
0	5558	0.008572041057050228
0	5556	-0.00035716837737709284
0	5586	0.0053575895726680756
0	5610	0.00428586732596159
0	5650	0.007141496520489454
0	5666	0.002855103462934494
0	5636	-0.005351282190531492
0	5706	0.01248587854206562
0	5704	-0.0003566206432878971
0	5726	0.003923386801034212
0	5754	0.004991502501070499
0	5780	0.004630948882550001
0	5834	0.009603756479918957
0	5882	0.008521819487214088
0	5938	0.009916887618601322
0	6040	0.01800360158085823
0	6044	0.0007032926077954471
0	6098	0.009459301829338074
0	6098	0.0
0	6024	-0.012865090742707253
0	5902	-0.021122615784406662
0	5704	-0.034190986305475235
0	5496	-0.03613871708512306
0	5250	-0.04323931783437729
0	5098	-0.026941120624542236
0	5000	-0.017275622114539146
0	5002	0.0003526673244778067
0	5022	0.003534359857439995
0	5058	0.006377249490469694
0	5128	0.012431036680936813
0	5240	0.01993473619222641
0	5254	0.0024965524207800627
0	5304	0.008932293392717838
0	5332	0.005010498221963644
0	5358	0.004660333506762981
0	5392	0.006104933097958565
0	5430	0.00683436868712306
0	5464	0.00612252252176404
0	5488	0.004328067414462566
0	5498	0.0018057060660794377
0	5520	0.003978012595325708
0	5548	0.0050700753927230835
0	5548	0.0
0	5566	0.003269556676968932
0	5578	0.002183882985264063
0	5590	0.002188662765547633
0	5612	0.0040235561318695545
0	5608	-0.000733487366233021
0	5582	-0.004781990312039852
0	5588	0.0011070383479818702
0	5602	0.0025900343898683786
0	5594	-0.0014827628619968891
0	5596	0.0003709428128786385
0	5582	-0.0025949953123927116
0	5606	0.004439456854015589
0	5598	-0.0014751981943845749
0	5588	-0.0018372447229921818
0	5602	0.002562944544479251
0	5614	0.0021890620701014996
0	5588	-0.004726985935121775
0	5582	-0.0010878104949370027
0	5596	0.0025329890195280313
0	5598	0.000361110782250762
0	5626	0.005046621430665255
0	5604	-0.003958210814744234
0	5592	-0.0021558436565101147
0	5596	0.0007177548832260072
0	5586	-0.0017926072468981147
0	5604	0.0032243425957858562
0	5594	-0.001790061593055725
0	5578	-0.0028624588157981634
0	5574	-0.0007153673213906586
0	5558	-0.002861025743186474
0	5596	0.006794530898332596
0	5570	-0.004648058675229549
0	5580	0.0017877999925985932
0	5590	0.0017879066290333867
0	5600	0.0017881410894915462
0	5596	-0.0007152905454859138
0	5556	-0.007152308244258165
0	5602	0.008226724341511726
0	5590	-0.002146101789548993
0	5604	0.002503845142200589
0	5660	0.010014903731644154
0	5688	0.005005124490708113
0	5706	0.0032160086557269096
0	5768	0.011070242151618004
0	5692	-0.013555452227592468
0	5622	-0.012478607706725597
0	5526	-0.01711270585656166
0	5524	-0.00035664610913954675
0	5444	-0.014270763844251633
0	5400	-0.007856020703911781
0	5368	-0.005720209795981646
0	5400	0.005729017313569784
0	5428	0.005019000731408596
0	5440	0.0021531099919229746
0	5294	-0.026220636442303658
0	5564	0.048575129359960556
0	6990	0.2566101849079132
0	7516	0.09386822581291199
1	5926	-0.28051233291625977
0	4314	-0.2838061451911926
0	5138	0.1461390107870102
0	5444	0.05441741272807121
0	5480	0.006406833883374929
0	5492	0.0021368791349232197
0	5514	0.00391989154741168
0	5544	0.0053480383940041065
0	5562	0.003209815127775073
0	5566	0.0007132667815312743
0	5602	0.0064207748509943485
0	5606	0.0007133685285225511
0	5610	0.0007133600302040577
0	5630	0.003567860694602132
0	5648	0.0032121825497597456
0	5662	0.0024992264807224274
0	5688	0.004644349683076143
0	5718	0.005358992610126734
0	5750	0.0057129934430122375
0	5800	0.008914669044315815
0	5868	0.01210409589111805
0	5926	0.010298172943294048
0	6006	0.014160294085741043
0	6044	0.00670091575011611
0	6052	0.0014053990598767996
0	6004	-0.00840169470757246
0	5932	-0.012561207637190819
0	5760	-0.029896404594182968
0	5502	-0.044793739914894104
0	5264	-0.041680287569761276
0	5044	-0.03904123976826668
0	4894	-0.02675863727927208
0	4844	-0.008888889104127884
0	4838	-0.001068528275936842
0	4896	0.010366398841142654
0	4928	0.005739361513406038
0	4994	0.011877481825649738
0	5066	0.012997797690331936
0	5104	0.006879737135022879
0	5204	0.018154749646782875
0	5224	0.0036389220040291548
0	5288	0.011671307496726513
0	5304	0.002923478139564395
0	5354	0.009152927435934544
0	5384	0.005501020699739456
0	5394	0.0018366372678428888
0	5434	0.00735862273722887
0	5450	0.00294804060831666
0	5472	0.004060239065438509
0	5472	0.0
0	5498	0.0048164199106395245
0	5500	0.0003713422629516572
0	5510	0.0018616196466609836
0	5494	-0.0029877873603254557
0	5548	0.010118423029780388
0	5504	-0.008270676247775555
0	5528	0.004525455646216869
0	5534	0.0011342440266162157
0	5530	-0.0007572410977445543
0	5546	0.0030284293461591005
0	5542	-0.000755762739572674
0	5570	0.005273798014968634
0	5568	-0.00037510786205530167
0	5552	-0.002987341256812215
0	5568	0.0029741250909864902
0	5552	-0.0029617929831147194
0	5566	0.0025816287379711866
0	5572	0.0011025358689948916
0	5562	-0.001831882051192224
0	5584	0.004018900915980339
0	5572	-0.002187067177146673
0	5576	0.0007274843519553542
0	5564	-0.0021786491852253675
0	5566	0.0003625377721618861
0	5594	0.005069035571068525
0	5580	-0.0025313098449259996
0	5576	-0.0007224215660244226
0	5580	0.000721804506611079
0	5590	0.001803101389668882
0	5660	0.012612764723598957
0	5694	0.00611928990110755
0	5766	0.012943277135491371
0	5712	-0.009692009538412094
0	5642	-0.012548550963401794
0	5554	-0.01576138287782669
0	5544	-0.001791001996025443
0	5472	-0.012892136350274086
0	5400	-0.012896446511149406
0	5390	-0.0017926072468981147
0	5408	0.0032293947879225016
0	5450	0.007541477680206299
0	5452	0.00035931586171500385
0	5350	-0.018338067457079887
0	5770	0.07560846954584122
0	7122	0.24306927621364594
0	7332	0.03740648552775383
1	5562	-0.31198588013648987
0	4256	-0.23020516335964203
0	4960	0.12505921721458435
0	5500	0.09626927226781845
0	5536	0.0064211562275886536
0	5576	0.007136146072298288
0	5574	-0.00035680728615261614
0	5598	0.004281432833522558
0	5604	0.0010701545979827642
0	5644	0.007133939769119024
0	5624	-0.003565613180398941
0	5654	0.005346894729882479
0	5668	0.0024941209703683853
0	5656	-0.002136828377842903
0	5684	0.004986051004379988
0	5686	0.0003561676130630076
0	5734	0.008552084676921368
0	5768	0.006056935526430607
0	5788	0.003560239216312766
0	5848	0.010665908455848694
0	5900	0.009227165952324867
0	5964	0.01132783479988575
0	6010	0.008114878088235855
0	6032	0.0038669307250529528
0	6022	-0.0017512929625809193
0	6004	-0.0031418364960700274
0	5896	-0.01879066973924637
0	5700	-0.03399394080042839
0	5400	-0.052052609622478485
0	5154	-0.043112512677907944
0	5008	-0.025916853919625282
0	4932	-0.0135353347286582
0	4904	-0.0049667698331177235
0	4938	0.006033075507730246
0	4980	0.007477478589862585
0	5034	0.009645727463066578
0	5102	0.012185798026621342
0	5158	0.010063737630844116
0	5218	0.010811070911586285
0	5268	0.009030160494148731
0	5290	0.00398228457197547
0	5362	0.013059250079095364
0	5404	0.0076313684694468975
0	5448	0.00800757110118866
0	5466	0.003279963042587042
0	5456	-0.0018246177351102233
0	5498	0.007674130145460367
0	5514	0.0029276860877871513
0	5502	-0.0021991715766489506
0	5496	-0.0011015102500095963
0	5512	0.0029437015764415264
0	5520	0.001475361525081098
0	5512	-0.0014793993905186653
0	5544	0.005935818888247013
0	5526	-0.003349003382027149
0	5564	0.007091933395713568
0	5568	0.0007485683890990913
0	5558	-0.0018752578180283308
0	5572	0.00262769334949553
0	5572	0.0
0	5584	0.0022440252359956503
0	5592	0.0014906646683812141
0	5572	-0.0037114473525434732
0	5582	0.0018480871804058552
0	5580	-0.00036815687781199813
0	5596	0.0029344516806304455
0	5606	0.001827752566896379
0	5566	-0.007288629654794931
0	5596	0.00545295886695385
0	5594	-0.000362699938705191
0	5612	0.0032578790560364723
0	5612	0.0
0	5612	0.0
0	5630	0.003242619801312685
0	5610	-0.0035989778116345406
0	5616	0.0010787616483867168
0	5592	-0.004310912452638149
0	5600	0.00143616262357682
0	5594	-0.00107656791806221
0	5594	0.0
0	5606	0.0021506918128579855
0	5600	-0.00107474229298532
0	5628	0.005013070069253445
0	5656	0.005009601823985577
0	5714	0.010370105504989624
0	5732	0.003214706666767597
0	5796	0.011418648064136505
0	5746	-0.008908738382160664
0	5676	-0.012458323501050472
0	5574	-0.01814236305654049
0	5562	-0.002134370617568493
0	5486	-0.013519443571567535
0	5440	-0.008187967352569103
0	5432	-0.0014251103857532144
0	5444	0.0021395713556557894
0	5470	0.004639487713575363
0	5468	-0.00035715135163627565
0	5350	-0.021089253947138786
0	5622	0.04867514967918396
0	6974	0.24190662801265717
0	7400	0.07559983432292938
1	5220	-0.38282328844070435
0	4418	-0.1411607265472412
0	5318	0.15952733159065247
0	5462	0.025571512058377266
0	5524	0.011019609868526459
0	5518	-0.0010669954353943467
0	5580	0.011030458845198154
0	5588	0.001423453795723617
0	5604	0.0028470088727772236
0	5634	0.005337825044989586
0	5638	0.0007115917978808284
0	5644	0.001067147240974009
0	5670	0.00462386617437005
0	5642	-0.004979135002940893
0	5690	0.00853930413722992
0	5704	0.0024912510998547077
0	5728	0.004273047670722008
0	5754	0.004629629664123058
0	5778	0.004271526820957661
0	5838	0.010665908455848694
0	5870	0.005679196212440729
0	5942	0.012749229557812214
0	5998	0.00988677330315113
0	6020	0.0038711947854608297
0	6028	0.0014029672602191567
0	6010	-0.0031464132480323315
0	5956	-0.009409523569047451
0	5746	-0.03646424040198326
0	5568	-0.030885618180036545
0	5344	-0.03918595612049103
0	5116	-0.040369704365730286
0	5018	-0.017362546175718307
0	4968	-0.008827163837850094
0	4974	0.0010614459170028567
0	4998	0.004258037079125643
0	5032	0.00605104211717844
0	5096	0.011423132382333279
0	5152	0.01002410613000393
0	5208	0.01005025114864111
0	5252	0.007915377616882324
0	5304	0.009376013651490211
0	5338	0.006142802536487579
0	5342	0.000724016863387078
0	5418	0.013783598318696022
0	5422	0.0007264362066052854
0	5472	0.00909520871937275
0	5484	0.002185925142839551
0	5504	0.003648614278063178
0	5510	0.001096250838600099
0	5520	0.0018300717929378152
0	5528	0.0014669030206277966
0	5540	0.002204963704571128
0	5512	-0.005157614126801491
0	5546	0.006281562149524689
0	5542	-0.0007411707774735987
0	5548	0.0011151034850627184
0	5540	-0.0014910722384229302
0	5542	0.0003737339866347611
0	5558	0.0029936758801341057
0	5548	-0.0018711641896516085
0	5578	0.005606358405202627
0	5570	-0.001490738708525896
0	5600	0.005571168381720781
0	5592	-0.0014798555057495832
0	5564	-0.0051598320715129375
0	5610	0.00844749715179205
0	5612	0.00036598756560124457
0	5598	-0.0025538746267557144
0	5582	-0.002910819835960865
0	5590	0.0014521164121106267
0	5582	-0.0014491528272628784
0	5558	-0.004340173210948706
0	5598	0.007224041502922773
0	5584	-0.0025245239958167076
0	5610	0.004683728329837322
0	5584	-0.004678446799516678
0	5584	0.0
0	5606	0.003953658044338226
0	5596	-0.0017960199620574713
0	5614	0.003231172449886799
0	5590	-0.004305807873606682
0	5590	0.0
0	5616	0.0046615032479166985
0	5612	-0.0007167088333517313
0	5608	-0.0007164264679886401
0	5568	-0.007161442656069994
0	5586	0.0032222645822912455
0	5604	0.0032213805243372917
0	5602	-0.0003577988245524466
0	5584	-0.0032193446531891823
0	5588	0.0007152564357966185
0	5648	0.010728206485509872
0	5698	0.008936017751693726
0	5730	0.005715714767575264
0	5742	0.002141633303835988
0	5674	-0.012123084627091885
0	5600	-0.013187753036618233
0	5566	-0.006059669889509678
0	5560	-0.0010695569217205048
0	5474	-0.015332318842411041
0	5410	-0.011417968198657036
0	5406	-0.0007143537513911724
0	5400	-0.001072501065209508
0	5442	0.0075163752771914005
0	5382	-0.010746781714260578
0	5340	-0.007533001713454723
0	6078	0.13255897164344788
0	7382	0.23353272676467896
0	6970	-0.07301080971956253
1	4538	-0.427506685256958
0	4576	0.006722174119204283
0	5362	0.1398792266845703
0	5478	0.02067171223461628
0	5510	0.005707219708710909
0	5552	0.0074952710419893265
0	5570	0.0032133294735103846
0	5586	0.0028562587685883045
0	5582	-0.0007140646921470761
0	5608	0.004642028361558914
0	5636	0.004998928401619196
0	5642	0.0010708676418289542
0	5672	0.0053526186384260654
0	5662	-0.0017839516513049603
0	5700	0.006780467461794615
0	5716	0.002855443162843585
0	5708	-0.0014279424212872982
0	5730	0.0039260475896298885
0	5790	0.010699128732085228
0	5828	0.006767104845494032
0	5886	0.010312332771718502
0	5944	0.010287214070558548
0	5982	0.006718687247484922
0	6040	0.01022014394402504
0	6070	0.005266484338790178
0	6018	-0.009095149114727974
0	5966	-0.009061548858880997
0	5826	-0.024308087304234505
0	5618	-0.03616762161254883
0	5390	-0.0400548093020916
0	5128	-0.046457745134830475
0	5018	-0.019437376409769058
0	4934	-0.014804545789957047
0	4908	-0.0045939101837575436
0	4922	0.002481976291164756
0	4964	0.0074718911200761795
0	5062	0.017495417967438698
0	5092	0.005371979903429747
0	5152	0.010775732807815075
0	5200	0.008642834611237049
0	5252	0.00938605610281229
0	5304	0.009407791309058666
0	5360	0.010152161121368408
0	5402	0.007628504186868668
0	5420	0.0032745134085416794
0	5436	0.0029156291857361794
0	5474	0.006936416029930115
0	5478	0.0007311901426874101
0	5482	0.0007323145982809365
0	5494	0.002201081020757556
0	5506	0.0022055848967283964
0	5522	0.002947642467916012
0	5518	-0.0007388252415694296
0	5560	0.007779891137033701
0	5530	-0.005573583766818047
0	5548	0.003355371067300439
0	5530	-0.0033651988487690687
0	5558	0.005249015521258116
0	5568	0.0018777932273223996
0	5562	-0.0011270286049693823
0	5594	0.006004353053867817
0	5576	-0.0033676333259791136
0	5562	-0.0026101870462298393
0	5606	0.00817155372351408
0	5558	-0.008876068517565727
0	5580	0.004052311647683382
0	5574	-0.0011010117596015334
0	5588	0.0025610066950321198
0	5586	-0.000364754960173741
0	5594	0.0014551804633811116
0	5618	0.00435513723641634
0	5604	-0.002534884959459305
0	5610	0.0010844158241525292
0	5584	-0.0046920678578317165
0	5612	0.005047470331192017
0	5624	0.0021607086528092623
0	5592	-0.005755395628511906
0	5606	0.002516205655410886
0	5600	-0.001077547436580062
0	5588	-0.002153573790565133
0	5606	0.0032285451889038086
0	5574	-0.005736206192523241
0	5588	0.0025088107213377953
0	5588	0.0
0	5582	-0.001074575469829142
0	5606	0.004296968225389719
0	5640	0.006085265427827835
0	5694	0.009658494964241982
0	5728	0.006076347548514605
0	5768	0.007141836918890476
0	5718	-0.00891636498272419
0	5600	-0.02102712169289589
0	5586	-0.002494387561455369
0	5526	-0.01068870909512043
0	5478	-0.008555031381547451
0	5430	-0.008559099398553371
0	5434	0.0007138947257772088
0	5442	0.0014289796818047762
0	5458	0.0028604459948837757
0	5390	-0.012166175991296768
0	5384	-0.0010747936321422458
0	6256	0.15642191469669342
0	7398	0.20405974984169006
0	6822	-0.10183875262737274
1	4586	-0.3924688994884491
0	4626	0.007063310593366623
0	5392	0.1360616832971573
0	5540	0.026319844648241997
0	5562	0.003913940861821175
0	5562	0.0
0	5600	0.006763010285794735
0	5604	0.0007119210786186159
0	5634	0.005338458344340324
0	5650	0.002846401184797287
0	5658	0.0014226774219423532
0	5658	0.0
0	5682	0.004264796152710915
0	5684	0.0003553113201633096
0	5702	0.0031979912891983986
0	5732	0.005330806132405996
0	5754	0.003910091705620289
0	5810	0.009950838051736355
0	5806	-0.0007098911446519196
0	5894	0.015597306191921234
0	5942	0.008489164523780346
0	5998	0.009877007454633713
0	6022	0.00421891501173377
0	6040	0.0031533215660601854
0	6000	-0.006982996128499508
0	5950	-0.008701302111148834
0	5794	-0.02706015855073929
0	5560	-0.04049423709511757
0	5324	-0.0410049706697464
0	5104	-0.038689710199832916
0	4978	-0.02238408289849758
0	4918	-0.010634400881826878
0	4918	0.0
0	4944	0.004613200668245554
0	4992	0.008546805940568447
0	5060	0.012149075977504253
0	5106	0.008243137039244175
0	5160	0.00970536470413208
0	5236	0.013695832341909409
0	5292	0.0101158507168293
0	5312	0.0036206087097525597
0	5350	0.0068935491144657135
0	5400	0.009087384678423405
0	5424	0.004369409289211035
0	5450	0.004741006996482611
0	5464	0.0025567663833498955
0	5472	0.001463396823965013
0	5512	0.007329586893320084
0	5494	-0.0033043287694454193
0	5532	0.006989148445427418
0	5522	-0.0018433406949043274
0	5538	0.002956976182758808
0	5530	-0.0014826895203441381
0	5530	0.0
0	5560	0.005594718270003796
0	5558	-0.00037400421570055187
0	5574	0.002999362535774708
0	5562	-0.002252618782222271
0	5562	0.0
0	5584	0.004123608116060495
0	5572	-0.0022425155621021986
0	5588	0.0029789982363581657
0	5596	0.0014833310851827264
0	5574	-0.004062138497829437
0	5584	0.0018392946803942323
0	5594	0.0018326430581510067
0	5578	-0.0029226946644484997
0	5570	-0.0014571595238521695
0	5592	0.003997238352894783
0	5588	-0.0007252070354297757
0	5576	-0.0021717362105846405
0	5606	0.005420707166194916
0	5568	-0.006855658255517483
0	5598	0.005406898912042379
0	5592	-0.0010802506003528833
0	5592	0.0
0	5590	-0.0003595010202843696
0	5580	-0.0017962349811568856
0	5622	0.007541116792708635
0	5644	0.003947085235267878
0	5672	0.005020200274884701
0	5740	0.01218099519610405
0	5730	-0.0017891647294163704
0	5700	-0.005361099727451801
0	5668	-0.00571272149682045
0	5566	-0.01819760538637638
0	5564	-0.00035679881693795323
0	5482	-0.014629620127379894
0	5448	-0.006068827584385872
0	5400	-0.008573572151362896
0	5442	0.007510102819651365
0	5484	0.007515926845371723
0	5444	-0.00716246897354722
0	5374	-0.012545702047646046
0	5768	0.07069885730743408
0	6986	0.21831607818603516
0	7338	0.06257258355617523
1	5174	-0.38070887327194214
0	4372	-0.14142292737960815
0	5132	0.13498473167419434
0	5518	0.06874361634254456
0	5554	0.006413530092686415
0	5566	0.0021385038271546364
0	5608	0.007484851870685816
0	5648	0.007128007244318724
0	5612	-0.006413073278963566
0	5638	0.004631113726645708
0	5638	0.0
0	5670	0.005696247331798077
0	5706	0.006406453903764486
0	5682	-0.004269399214535952
0	5728	0.008182529360055923
0	5742	0.002490512328222394
0	5750	0.0014230486704036593
0	5778	0.004979194141924381
0	5816	0.006753074005246162
0	5870	0.009582283906638622
0	5992	0.021609749644994736
0	6046	0.009536255151033401
0	6086	0.0070391143672168255
0	6058	-0.004907631315290928
0	6034	-0.004191456362605095
0	5908	-0.021934915333986282
0	5730	-0.03090420737862587
0	5506	-0.03881072625517845
0	5280	-0.03921659290790558
0	5074	-0.03610234707593918
0	4956	-0.020957162603735924
0	4944	-0.0021339908707886934
0	4978	0.006025875452905893
0	4998	0.0035478605423122644
0	5054	0.009964649565517902
0	5114	0.010708166286349297
0	5192	0.013958149589598179
0	5264	0.012916496954858303
0	5282	0.0032365561928600073
0	5356	0.013332212343811989
0	5382	0.0046922373585402966
0	5448	0.011929435655474663
0	5464	0.00289585767313838
0	5486	0.003987626172602177
0	5486	0.0
0	5484	-0.00036347334389574826
0	5544	0.010921269655227661
0	5552	0.0014579916605725884
0	5560	0.0014599960995838046
0	5558	-0.0003655683540273458
0	5556	-0.0003662646049633622
0	5584	0.005141388159245253
0	5530	-0.009943652898073196
0	5556	0.004804079420864582
0	5572	0.0029655257239937782
0	5578	0.0011152555234730244
0	5604	0.004842675291001797
0	5572	-0.005964881740510464
0	5586	0.002608566079288721
0	5576	-0.0018597269663587213
0	5600	0.004449498374015093
0	5592	-0.00147728668525815
0	5572	-0.0036785444244742393
0	5606	0.006230833940207958
0	5592	-0.002556143794208765
0	5598	0.0010919150663539767
0	5598	0.0
0	5610	0.0021721029188483953
0	5600	-0.0018063149182125926
0	5602	0.00036057259421795607
0	5604	0.0003600403433665633
0	5608	0.0007191226468421519
0	5582	-0.004669819958508015
0	5590	0.001435853191651404
0	5574	-0.0028699208050966263
0	5588	0.0025098600890487432
0	5616	0.005016602575778961
0	5646	0.005372621119022369
0	5694	0.008591372519731522
0	5708	0.0025038153398782015
0	5770	0.011078418232500553
0	5724	-0.00820900872349739
0	5640	-0.014977890066802502
0	5568	-0.012829803861677647
0	5538	-0.005345370154827833
0	5472	-0.01176218967884779
0	5432	-0.007133091799914837
0	5438	0.001071058795787394
0	5452	0.0025011315010488033
0	5446	-0.0010727695189416409
0	5448	0.00035786713124252856
0	5350	-0.017551399767398834
0	5984	0.11371109634637833
0	7166	0.21147675812244415
0	7136	-0.005317954812198877
1	5048	-0.36678338050842285
0	4418	-0.11102495342493057
0	5232	0.14445258677005768
0	5464	0.04126302897930145
0	5496	0.005696045234799385
0	5518	0.003918495494872332
0	5546	0.004989723674952984
0	5578	0.005704641807824373
0	5596	0.003208937356248498
0	5590	-0.0010696076788008213
0	5600	0.0017825099639594555
0	5616	0.0028518126346170902
0	5638	0.00392124243080616
0	5660	0.003921428695321083
0	5660	0.0
0	5684	0.004280007444322109
0	5708	0.004282196518033743
0	5732	0.004282603971660137
0	5786	0.009630589745938778
0	5814	0.004987176042050123
0	5838	0.004267728887498379
0	5918	0.014194968156516552
0	5970	0.009200283326208591
0	6008	0.006702254991978407
0	5974	-0.005977216176688671
0	5886	-0.015422722324728966
0	5666	-0.03845839947462082
0	5506	-0.027918338775634766
0	5254	-0.04409397020936012
0	5082	-0.030435293912887573
0	4982	-0.017911944538354874
0	4958	-0.004300561733543873
0	4958	0.0
0	4992	0.006082797888666391
0	5054	0.011123470962047577
0	5076	0.0039574988186359406
0	5176	0.018036432564258575
0	5236	0.010845987126231194
0	5268	0.005796471145004034
0	5308	0.007259967736899853
0	5348	0.00727237481623888
0	5370	0.004005923867225647
0	5410	0.007294389419257641
0	5402	-0.0014609025092795491
0	5452	0.00914500281214714
0	5452	0.0
0	5478	0.004768192768096924
0	5480	0.0003673004684969783
0	5484	0.0007357359281741083
0	5522	0.007002457045018673
0	5516	-0.001107637770473957
0	5516	0.0
0	5518	0.0003708648728206754
0	5504	-0.0026033271569758654
0	5544	0.007461387664079666
0	5538	-0.001122208428569138
0	5536	-0.00037488286034204066
0	5552	0.003001500852406025
0	5552	0.0
0	5554	0.00037438227445818484
0	5550	-0.0007465658127330244
0	5568	0.0033477162942290306
0	5554	-0.0025939696934074163
0	5572	0.003322872333228588
0	5572	0.0
0	5580	0.001466920948587358
0	5574	-0.001096811960451305
0	5586	0.0021883167792111635
0	5576	-0.0018197257304564118
0	5588	0.0021795989014208317
0	5582	-0.0010879551991820335
0	5582	0.0
0	5586	0.0007233534706756473
0	5586	0.0
0	5586	0.0
0	5590	0.000721205840818584
0	5592	0.00036030408227816224
0	5588	-0.0007201152620837092
0	5580	-0.0014392976881936193
0	5568	-0.0021577042061835527
0	5584	0.002876145998016
0	5590	0.0010781154269352555
0	5584	-0.0010776377748697996
0	5622	0.0068223439157009125
0	5654	0.005741077475249767
0	5674	0.0035858144983649254
0	5750	0.01361502893269062
0	5716	-0.006083160173147917
0	5624	-0.016444232314825058
0	5548	-0.01357854064553976
0	5534	-0.002501399489119649
0	5466	-0.012150812894105911
0	5388	-0.013946170918643475
0	5404	0.002863585948944092
0	5426	0.003941380884498358
0	5446	0.0035862005315721035
0	5448	0.00035890747676603496
0	5316	-0.02370576187968254
0	5684	0.0661957785487175
0	7268	0.2847452759742737
0	7324	0.00996642280369997
1	5080	-0.39528384804725647
0	4432	-0.11448357999324799
0	5364	0.16578516364097595
0	5488	0.02208632603287697
0	5528	0.007128769066184759
0	5560	0.005705116782337427
0	5578	0.0032097387593239546
0	5620	0.007489834912121296
0	5622	0.0003565740480553359
0	5640	0.0032081366516649723
0	5666	0.0046324338763952255
0	5662	-0.0007123606628738344
0	5686	0.004272185731679201
0	5680	-0.001067640958353877
0	5730	0.008895636536180973
0	5738	0.0014228292275220156
0	5774	0.0064031872898340225
0	5804	0.005334155168384314
0	5894	0.015985412523150444
0	5960	0.01169867068529129
0	6024	0.011315683834254742
0	6042	0.0031721042469143867
0	6110	0.011937643401324749
0	6062	-0.008391901850700378
0	6030	-0.005573941860347986
0	5896	-0.02326200343668461
0	5594	-0.05229075253009796
0	5372	-0.038377322256565094
0	5182	-0.03290461003780365
0	5056	-0.022086922079324722
0	4990	-0.011724717915058136
0	4974	-0.0028438714798539877
0	5022	0.00850430503487587
0	5076	0.009586706757545471
0	5152	0.01352537702769041
0	5206	0.009631620720028877
0	5248	0.0075070601888000965
0	5280	0.005730932578444481
0	5326	0.008254971355199814
0	5382	0.010067355819046497
0	5414	0.0057616825215518475
0	5422	0.0014426024863496423
0	5456	0.006139918230473995
0	5502	0.008318464271724224
0	5494	-0.0014482435071840882
0	5534	0.0072515434585511684
0	5544	0.0018151235999539495
0	5572	0.005089428275823593
0	5554	-0.003276380943134427
0	5580	0.004742333199828863
0	5588	0.0014625585172325373
0	5572	-0.002932909643277526
0	5596	0.004412034992128611
0	5584	-0.002212987747043371
0	5570	-0.0025894276332110167
0	5576	0.0011129110353067517
0	5622	0.00854923203587532
0	5604	-0.00334477168507874
0	5602	-0.0003711080062203109
0	5608	0.001110439421609044
0	5594	-0.00258223176933825
0	5612	0.003307729260995984
0	5610	-0.00036609472590498626
0	5600	-0.0018239300698041916
0	5618	0.0032726479694247246
0	5620	0.00036260351771488786
0	5606	-0.0025318895932286978
0	5590	-0.0028873570263385773
0	5590	0.0
0	5584	-0.001079033245332539
0	5586	0.0003592427237890661
0	5604	0.0032298583537340164
0	5572	-0.005735726095736027
0	5594	0.003940580878406763
0	5584	-0.0017901897663250566
0	5588	0.0007156915380619466
0	5586	-0.00035773057607002556
0	5592	0.0010729229543358088
0	5568	-0.004291180521249771
0	5602	0.006078664679080248
0	5578	-0.004290259908884764
0	5582	0.0007150859455578029
0	5594	0.002145129954442382
0	5648	0.009653199464082718
0	5670	0.003931285813450813
0	5736	0.011786836199462414
0	5758	0.003925207071006298
0	5692	-0.011766104027628899
0	5622	-0.012472678907215595
0	5540	-0.014609117992222309
0	5484	-0.009980988688766956
0	5422	-0.011057606898248196
0	5372	-0.008927509188652039
0	5370	-0.00035760688479058444
0	5372	0.00035809777909889817
0	5414	0.007531110662966967
0	5430	0.0028725313022732735
0	5232	-0.035585056990385056
0	5982	0.13508158922195435
0	7404	0.25551337003707886
0	7246	-0.028084229677915573
1	4944	-0.4051913321018219
0	4292	-0.11520927399396896
0	5236	0.16807320713996887
0	5422	0.03318662941455841
0	5434	0.0021431378554552794
0	5486	0.009295452386140823
0	5514	0.005008228123188019
0	5542	0.005010557826608419
0	5534	-0.0014318099711090326
0	5536	0.00035809777909889817
0	5566	0.005372813902795315
0	5544	-0.003940439783036709
0	5590	0.008241561241447926
0	5616	0.004659887868911028
0	5628	0.0021514114923775196
0	5644	0.002870401367545128
0	5668	0.004308538977056742
0	5720	0.009336509741842747
0	5740	0.0035888603888452053
0	5782	0.007527600973844528
0	5856	0.013239346444606781
0	5872	0.002855171449482441
0	5960	0.01565687730908394
0	5974	0.002482181414961815
0	6022	0.008480166085064411
0	5988	-0.005985353607684374
0	5890	-0.017195597290992737
0	5704	-0.03251141682267189
0	5492	-0.037116147577762604
0	5182	-0.05488603562116623
0	4992	-0.03405465558171272
0	4872	-0.021502036601305008
0	4818	-0.009642512537539005
0	4828	0.0017901043174788356
0	4876	0.008623064495623112
0	4902	0.004686485975980759
0	4988	0.015556038357317448
0	5068	0.014516772702336311
0	5098	0.0054594422690570354
0	5162	0.0116776954382658
0	5210	0.008778239600360394
0	5246	0.0065979985520243645
0	5302	0.010282273404300213
0	5322	0.003678724868223071
0	5356	0.0062651252374053
0	5382	0.004798996262252331
0	5412	0.00554624292999506
0	5436	0.004444005433470011
0	5414	-0.0040808250196278095
0	5446	0.0059477342292666435
0	5462	0.002980070887133479
0	5474	0.002240533707663417
0	5506	0.0059895929880440235
0	5470	-0.00675743306055665
0	5492	0.0041426061652600765
0	5496	0.0007557150674983859
0	5502	0.0011370958527550101
0	5510	0.001519853132776916
0	5514	0.0007608612650074065
0	5546	0.006086041685193777
0	5534	-0.002277011051774025
0	5536	0.00037820529541932046
0	5532	-0.0007532578310929239
0	5542	0.0018747420981526375
0	5554	0.002239697379991412
0	5552	-0.0003717149666044861
0	5568	0.0029617929831147194
0	5552	-0.0029512308537960052
0	5556	0.0007356186397373676
0	5548	-0.0014671181561425328
0	5550	0.0003659161156974733
0	5582	0.0058425432071089745
0	5582	0.0
0	5594	0.0021827705204486847
0	5580	-0.002542373025789857
0	5560	-0.003627043217420578
0	5588	0.00507240230217576
0	5582	-0.001085789524950087
0	5632	0.009040283970534801
0	5676	0.00794501043856144
0	5740	0.011540403589606285
0	5754	0.0025202520191669464
0	5694	-0.010782962664961815
0	5628	-0.011847916059195995
0	5560	-0.012195413932204247
0	5516	-0.007887943647801876
0	5458	-0.010396501049399376
0	5388	-0.01255080010741949
0	5400	0.00215313583612442
0	5426	0.004668310284614563
0	5448	0.003952947910875082
0	5454	0.0010786323109641671
0	5358	-0.01726660132408142
0	5894	0.09650585800409317
0	7298	0.252254843711853
0	7258	-0.00711246021091938
1	4844	-0.42494016885757446
0	4352	-0.086977019906044
0	5078	0.1292581707239151
0	5514	0.0778469443321228
0	5538	0.004286020528525114
0	5604	0.011787397786974907
0	5592	-0.0021428826730698347
0	5618	0.004642636049538851
0	5608	-0.0017853741301223636
0	5630	0.003927168902009726
0	5650	0.003568666987121105
0	5644	-0.0010702054714784026
0	5670	0.004635848104953766
0	5678	0.00142609269823879
0	5682	0.0007130379090085626
0	5708	0.004636344034224749
0	5722	0.002497175708413124
0	5750	0.004993520211428404
0	5808	0.010336223989725113
0	5856	0.008541532792150974
0	5898	0.00745879951864481
0	5940	0.0074394214898347855
0	6022	0.014477401040494442
0	6056	0.005980931222438812
0	6084	0.004907344467937946
0	6040	-0.007682995405048132
0	5940	-0.01740199699997902
0	5756	-0.0319119431078434
0	5522	-0.04061606898903847
0	5228	-0.05156024917960167
0	4998	-0.04082067310810089
0	4894	-0.01844124309718609
0	4880	-0.002474547363817692
0	4890	0.0017695983406156301
0	4944	0.009591133333742619
0	4970	0.0046342508867383
0	5028	0.010377032682299614
0	5108	0.014361453242599964
0	5174	0.011884468607604504
0	5216	0.0075825960375368595
0	5280	0.011583290994167328
0	5328	0.008706904016435146
0	5372	0.007996607571840286
0	5404	0.005826232489198446
0	5436	0.005835937336087227
0	5466	0.005479385145008564
0	5490	0.004389976151287556
0	5486	-0.0007326991762965918
0	5512	0.004770233761519194
0	5522	0.0018380325054749846
0	5506	-0.002946882275864482
0	5542	0.006646481342613697
0	5552	0.001850778004154563
0	5542	-0.0018561598844826221
0	5558	0.0029793307185173035
0	5530	-0.00523090735077858
0	5560	0.0056223999708890915
0	5554	-0.0011271557305008173
0	5558	0.0007523888489231467
0	5586	0.005265533458441496
0	5566	-0.003752673976123333
0	5588	0.00411332817748189
0	5578	-0.0018616426968947053
0	5572	-0.0011121683055534959
0	5588	0.002953337272629142
0	5592	0.0007354202680289745
0	5610	0.003296824172139168
0	5564	-0.008395385928452015
0	5614	0.009100174531340599
0	5610	-0.0007260757847689092
0	5590	-0.0036217449232935905
0	5628	0.006868463009595871
0	5628	0.0
0	5708	0.014411644078791142
0	5746	0.006833057384938002
0	5806	0.010769028216600418
0	5736	-0.012538361363112926
0	5672	-0.011446831747889519
0	5606	-0.011791469529271126
0	5562	-0.0078565813601017
0	5500	-0.011068002320826054
0	5450	-0.008926128037273884
0	5444	-0.001071722013875842
0	5448	0.0007149410666897893
0	5480	0.0057227336801588535
0	5504	0.00429404666647315
0	5404	-0.01789463683962822
0	6168	0.13684235513210297
0	7366	0.21379368007183075
0	6824	-0.09569547325372696
1	4620	-0.3863232433795929
0	4598	-0.003877654206007719
0	5318	0.1276475042104721
0	5592	0.04865172132849693
0	5618	0.0046160402707755566
0	5640	0.0039051868952810764
0	5658	0.003194245742633939
0	5682	0.004257785156369209
0	5654	-0.004963952582329512
0	5676	0.0038993265479803085
0	5660	-0.0028347682673484087
0	5672	0.0021251977887004614
0	5696	0.004249291960150003
0	5700	0.0007079311762936413
0	5726	0.004601770080626011
0	5726	0.0
0	5756	0.0053128693252801895
0	5788	0.005666390992701054
0	5814	0.004600792657583952
0	5894	0.01413893885910511
0	5890	-0.0007055668975226581
0	5976	0.015134982764720917
0	6014	0.006666978355497122
0	6048	0.005945372395217419
0	6062	0.0024395626969635487
0	6016	-0.007988699711859226
0	5920	-0.01662280037999153
0	5616	-0.05248256400227547
0	5364	-0.04364392161369324
0	5152	-0.03714562579989433
0	5008	-0.025479812175035477
0	4936	-0.012710817158222198
0	4958	0.0038761510513722897
0	4962	0.0007062479271553457
0	5018	0.00992426835000515
0	5046	0.0049797846004366875
0	5134	0.015706058591604233
0	5218	0.015039029531180859
0	5244	0.004667863715440035
0	5302	0.010438538156449795
0	5334	0.0057721445336937904
0	5372	0.00686788372695446
0	5412	0.007242440711706877
0	5430	0.0032646942418068647
0	5494	0.011626780964434147
0	5494	0.0
0	5488	-0.00109308201353997
0	5542	0.009853774681687355
0	5526	-0.002924012253060937
0	5554	0.005126014351844788
0	5546	-0.0014676206046715379
0	5554	0.0014707144582644105
0	5578	0.004423582460731268
0	5572	-0.001108866068534553
0	5588	0.0029656721744686365
0	5576	-0.002230787416920066
0	5594	0.003355329390615225
0	5582	-0.0022414266131818295
0	5592	0.0018682508962228894
0	5582	-0.0018656019819900393
0	5596	0.002604877343401313
0	5604	0.0014830927830189466
0	5582	-0.00406173849478364
0	5568	-0.0025748545303940773
0	5594	0.004764173645526171
0	5596	0.00036519006243906915
0	5578	-0.0032757450826466084
0	5604	0.004718921612948179
0	5600	-0.0007242964929901063
0	5622	0.00397508917376399
0	5602	-0.003606766229495406
0	5612	0.0018004825105890632
0	5624	0.002157471375539899
0	5602	-0.003950345329940319
0	5638	0.006457553710788488
0	5666	0.005018221214413643
0	5712	0.008235757239162922
0	5754	0.0075095659121870995
0	5718	-0.006428648252040148
0	5650	-0.01212913915514946
0	5600	-0.008913397789001465
0	5580	-0.003564215265214443
0	5480	-0.017818324267864227
0	5416	-0.011410369537770748
0	5428	0.002141429577022791
0	5458	0.005358674097806215
0	5466	0.0014299843460321426
0	5466	0.0
0	5386	-0.014320663176476955
0	6012	0.11219710111618042
0	7324	0.23454539477825165
0	7266	-0.010262943804264069
1	5008	-0.3956683278083801
0	4506	-0.08826114982366562
0	5374	0.15356671810150146
0	5488	0.02019510231912136
0	5502	0.0024816826917231083
0	5554	0.009221820160746574
0	5592	0.006741014774888754
0	5612	0.0035480703227221966
0	5612	0.0
0	5674	0.01099901832640171
0	5646	-0.004965478088706732
0	5672	0.004610201809555292
0	5678	0.0010634526843205094
0	5712	0.006024807691574097
0	5700	-0.0021258252672851086
0	5710	0.0017716465517878532
0	5760	0.008860534988343716
0	5774	0.0024803346022963524
0	5800	0.0046029649674892426
0	5860	0.010609704069793224
0	5906	0.00812070444226265
0	5946	0.007043824065476656
0	5970	0.004213187377899885
0	6036	0.011549633927643299
0	6028	-0.0013952514855191112
0	5994	-0.005910507868975401
0	5894	-0.017330821603536606
0	5756	-0.023846551775932312
0	5544	-0.036687932908535004
0	5314	-0.040215883404016495
0	5152	-0.028651943430304527
0	5066	-0.01519738882780075
0	4996	-0.012329298071563244
0	5012	0.002824393566697836
0	5012	0.0
0	5090	0.013847628608345985
0	5174	0.014953892678022385
0	5202	0.004997025243937969
0	5278	0.013596517965197563
0	5316	0.00681182648986578
0	5352	0.006467143073678017
0	5374	0.0039591132663190365
0	5400	0.004687331151217222
0	5462	0.01119618583470583
0	5448	-0.0025319813285022974
0	5480	0.005796191282570362
0	5502	0.003990422934293747
0	5502	0.0
0	5534	0.00582291092723608
0	5534	0.0
0	5542	0.0014609737554565072
0	5556	0.0025623817928135395
0	5556	0.0
0	5540	-0.0029428715351969004
0	5554	0.002582866931334138
0	5556	0.00037005971535108984
0	5536	-0.0037106212694197893
0	5576	0.007437709253281355
0	5576	0.0
0	5584	0.0014889076119288802
0	5592	0.0014864178374409676
0	5568	-0.004447134677320719
0	5566	-0.0003694490296766162
0	5554	-0.002208941150456667
0	5592	0.0069717951118946075
0	5566	-0.0047533148899674416
0	5568	0.00036458205431699753
0	5578	0.001818556571379304
0	5572	-0.0010886526433750987
0	5576	0.0007244801381602883
0	5584	0.0014466894790530205
0	5568	-0.002889338182285428
0	5592	0.004328952170908451
0	5578	-0.0025223104748874903
0	5598	0.0036007920280098915
0	5586	-0.002158532151952386
0	5558	-0.005033376161009073
0	5572	0.0025158438365906477
0	5564	-0.0014370224671438336
0	5592	0.005028675310313702
0	5578	-0.002513465005904436
0	5574	-0.0007179781678132713
0	5594	0.003589504398405552
0	5614	0.003588688326999545
0	5662	0.008609042502939701
0	5724	0.011112837120890617
0	5762	0.006804264150559902
0	5718	-0.007868008688092232
0	5646	-0.012864034622907639
0	5530	-0.020716750994324684
0	5442	-0.015721211209893227
0	5378	-0.011443830095231533
0	5408	0.005370376631617546
0	5420	0.002150178188458085
0	5454	0.006097050383687019
0	5440	-0.00251262285746634
0	5274	-0.029815003275871277
0	5846	0.10291718691587448
0	7598	0.31472301483154297
1	6724	-0.155120387673378
0	4018	-0.4770299196243286
0	4872	0.15194648504257202
0	5380	0.09075966477394104
0	5448	0.012164289131760597
0	5462	0.002506355522200465
0	5496	0.006091807037591934
0	5526	0.005378014873713255
0	5532	0.0010758086573332548
0	5568	0.006456395611166954
0	5590	0.003945480566471815
0	5596	0.0010760531295090914
0	5614	0.003227811772376299
0	5648	0.006095520220696926
0	5660	0.0021506662014871836
0	5652	-0.0014333834405988455
0	5676	0.004300407133996487
0	5720	0.007886340841650963
0	5754	0.006095520220696926
0	5814	0.010754486545920372
0	5846	0.005729975178837776
0	5912	0.011795824393630028
0	5940	0.004990316461771727
0	6002	0.011013215407729149
0	6038	0.006372358184307814
0	6020	-0.0031746032182127237
0	5986	-0.005976585671305656
0	5868	-0.02067611925303936
0	5682	-0.032478492707014084
0	5446	-0.04124864563345909
0	5220	-0.04000236093997955
0	5042	-0.03178836405277252
0	4922	-0.02130051515996456
0	4880	-0.0074529750272631645
0	4904	0.004271476063877344
0	4938	0.006070850417017937
0	4994	0.01003032922744751
0	5032	0.006826756056398153
0	5106	0.013333654031157494
0	5182	0.013729150407016277
0	5212	0.005432027392089367
0	5282	0.012703713029623032
0	5332	0.009091349318623543
0	5342	0.00182138301897794
0	5378	0.0065691834315657616
0	5400	0.004021398723125458
0	5430	0.005492158234119415
0	5448	0.00330024934373796
0	5458	0.0018365246942266822
0	5492	0.006255519576370716
0	5478	-0.0025808988139033318
0	5506	0.005173496901988983
0	5512	0.0011113855289295316
0	5518	0.0011143302544951439
0	5506	-0.0022353583481162786
0	5526	0.003737945109605789
0	5534	0.0014997937250882387
0	5538	0.0007520210347138345
0	5558	0.0037678976077586412
0	5562	0.0007541667437180877
0	5576	0.0026376608293503523
0	5576	0.0
0	5554	-0.004121857229620218
0	5578	0.004478893242776394
0	5568	-0.0018581374315544963
0	5588	0.003701053559780121
0	5582	-0.001105882111005485
0	5582	0.0
0	5590	0.0014642716851085424
0	5592	0.00036499014822766185
0	5582	-0.0018204104853793979
0	5598	0.0029061317909508944
0	5586	-0.002175436820834875
0	5592	0.0010860514594241977
0	5558	-0.006145022809505463
0	5592	0.0061383661814033985
0	5584	-0.001442654407583177
0	5596	0.0021619803737848997
0	5594	-0.0003600100753828883
0	5560	-0.0061151813715696335
0	5580	0.0035956993233412504
0	5600	0.00359350279904902
0	5646	0.00826040655374527
0	5714	0.012201248668134212
0	5724	0.0017922003753483295
0	5798	0.013245033100247383
0	5722	-0.013580966740846634
0	5672	-0.00892485212534666
0	5568	-0.018548905849456787
0	5538	-0.005350327584892511
0	5456	-0.014626314863562584
0	5382	-0.013208781369030476
0	5396	0.0025018465239554644
0	5448	0.009301327168941498
0	5420	-0.0050122919492423534
0	5472	0.009316770359873772
0	5318	-0.027611101046204567
0	5570	0.0452532023191452
0	6748	0.21155595779418945
0	7592	0.15052971243858337
0	6810	-0.13783298432826996
1	4440	-0.41473686695098877
0	4426	-0.002466583624482155
0	5380	0.16923294961452484
0	5520	0.024866195395588875
0	5556	0.006395603530108929
0	5544	-0.00213232240639627
0	5566	0.003910184372216463
0	5598	0.005688551813364029
0	5614	0.002844208385795355
0	5626	0.0021324739791452885
0	5658	0.005685048643499613
0	5660	0.0003551935078576207
0	5674	0.002486148616299033
0	5696	0.003907730337232351
0	5688	-0.0014212285168468952
0	5712	0.004266464617103338
0	5762	0.008888994343578815
0	5770	0.0014214810216799378
0	5806	0.006389020476490259
0	5848	0.007442058064043522
0	5934	0.015203299932181835
0	5968	0.005991118960082531
0	6044	0.013347070664167404
0	6098	0.009450472891330719
0	6086	-0.0020918312948197126
0	6078	-0.001389596494846046
0	6000	-0.013489209115505219
0	5856	-0.02484157681465149
0	5622	-0.04057569056749344
0	5336	-0.05016370117664337
0	5140	-0.03467676043510437
0	4956	-0.03241986036300659
0	4936	-0.003512962721288204
0	4896	-0.0070442380383610725
0	4916	0.0035350678954273462
0	4976	0.010645344853401184
0	5064	0.015665795654058456
0	5108	0.00785630103200674
0	5182	0.013251516036689281
0	5230	0.008617800660431385
0	5286	0.010077985003590584
0	5326	0.007214660290628672
0	5388	0.011205224320292473
0	5418	0.005431240424513817
0	5442	0.004352293908596039
0	5472	0.005448469426482916
0	5478	0.0010912794386968017
0	5494	0.0029150978662073612
0	5496	0.00036499902489595115
0	5520	0.004388263914734125
0	5514	-0.0010992634342983365
0	5506	-0.0014694536803290248
0	5510	0.0007368110818788409
0	5518	0.0014784698141738772
0	5506	-0.002225656993687153
0	5546	0.007445554248988628
0	5540	-0.0011205318151041865
0	5554	0.0026220830623060465
0	5560	0.001125872484408319
0	5576	0.0030034915544092655
0	5582	0.0011246204376220703
0	5566	-0.002990728709846735
0	5584	0.0033518304117023945
0	5572	-0.002225601812824607
0	5578	0.0011081696720793843
0	5582	0.0007357810391113162
0	5572	-0.0018326430581510067
0	5570	-0.00036539469147101045
0	5580	0.0018218476325273514
0	5584	0.0007269819034263492
0	5602	0.0032644178718328476
0	5574	-0.005068301688879728
0	5566	-0.0014459225349128246
0	5602	0.006499681156128645
0	5602	0.0
0	5596	-0.0010810421081259847
0	5572	-0.004320950713008642
0	5580	0.0014395047910511494
0	5592	0.002158144023269415
0	5600	0.0014379351632669568
0	5658	0.010420034639537334
0	5730	0.01292407140135765
0	5748	0.003226693021133542
0	5780	0.005728197284042835
0	5688	-0.016442861407995224
0	5562	-0.022495178505778313
0	5580	0.0032132910564541817
0	5496	-0.014991790056228638
0	5456	-0.007141411770135164
0	5406	-0.008932293392717838
0	5442	0.00643776822835207
0	5452	0.0017897625220939517
0	5476	0.0042983535677194595
0	5482	0.001075281761586666
0	5364	-0.021158583462238312
0	5958	0.10664656013250351
0	7328	0.24541708827018738
1	4954	-0.420857310295105
0	4338	-0.10960203409194946
0	5142	0.14411357045173645
0	5550	0.07332590222358704
0	5558	0.001438210834749043
0	5580	0.003955459222197533
0	5568	-0.002157342154532671
0	5578	0.0017981515266001225
0	5628	0.008992050774395466
0	5598	-0.0053941961377859116
0	5644	0.008269811980426311
0	5618	-0.0046724495477974415
0	5668	0.008984080515801907
0	5674	0.0010776506969705224
0	5672	-0.00035918247886002064
0	5716	0.007904759608209133
0	5738	0.003953137435019016
0	5780	0.0075487978756427765
0	5798	0.0032334167044609785
0	5838	0.007175230886787176
0	5890	0.00931343249976635
0	5930	0.007147366646677256
0	6000	0.012472678907215595
0	6048	0.008522626012563705
0	6060	0.00212304200977087
0	6024	-0.006346371024847031
0	5960	-0.01124622207134962
0	5802	-0.02768659219145775
0	5572	-0.04020041972398758
0	5342	-0.04029102995991707
0	5138	-0.03615568205714226
0	4968	-0.03009701892733574
0	4894	-0.013052527792751789
0	4872	-0.0038861476350575686
0	4920	0.008512851782143116
0	4950	0.005340675823390484
0	5006	0.010006670840084553
0	5102	0.0172119103372097
0	5152	0.008990110829472542
0	5234	0.014785964973270893
0	5274	0.007228480651974678
0	5318	0.007969089783728123
0	5384	0.011975322850048542
0	5406	0.003998642787337303
0	5430	0.004369250498712063
0	5484	0.009845270775258541
0	5492	0.001460618106648326
0	5498	0.0010971061419695616
0	5508	0.0018316584173589945
0	5494	-0.002568870084360242
0	5514	0.00367755233310163
0	5512	-0.0003686046984512359
0	5508	-0.0007391074323095381
0	5538	0.005560155026614666
0	5534	-0.0007436971645802259
0	5544	0.0018653236329555511
0	5540	-0.0007483629742637277
0	5540	0.0
0	5548	0.0015031190123409033
0	5562	0.002630853559821844
0	5558	-0.0007506380788981915
0	5578	0.003743355628103018
0	5584	0.0011187490308657289
0	5570	-0.002599267289042473
0	5590	0.003697267733514309
0	5588	-0.00036820658715441823
0	5604	0.0029341646004468203
0	5612	0.0014617390697821975
0	5586	-0.00473594106733799
0	5612	0.004723493941128254
0	5576	-0.006525285542011261
0	5590	0.0025329890195280313
0	5602	0.0021675778552889824
0	5640	0.006854998879134655
0	5618	-0.003963106777518988
0	5672	0.009716656990349293
0	5726	0.009705713018774986
0	5764	0.006820384878665209
0	5818	0.00967672560364008
0	5752	-0.011805249378085136
0	5674	-0.013930229470133781
0	5604	-0.012489592656493187
0	5586	-0.0032098530791699886
0	5514	-0.012833462096750736
0	5444	-0.012478756718337536
0	5466	0.003923993557691574
0	5484	0.0032120298128575087
0	5512	0.004998155403882265
0	5522	0.001785352942533791
0	5428	-0.016784915700554848
0	5716	0.0514671728014946
0	6882	0.20817463099956512
0	7310	0.07582557946443558
1	5744	-0.27463725209236145
0	4232	-0.26489755511283875
0	4850	0.1091371402144432
0	5464	0.10890386998653412
0	5630	0.029467454180121422
0	5630	0.0
0	5650	0.0035489939618855715
0	5684	0.006031934171915054
0	5674	-0.001772965886630118
0	5698	0.004253006540238857
0	5716	0.0031879472080618143
0	5724	0.0014162299921736121
0	5734	0.0017691808752715588
0	5726	-0.0014148274203762412
0	5756	0.005305602680891752
0	5756	0.0
0	5764	0.0014154113596305251
0	5834	0.012383973225951195
0	5826	-0.001413977239280939
0	5874	0.00847278069704771
0	5906	0.005638965405523777
0	5982	0.013361776247620583
0	6028	0.008061972446739674
0	6068	0.006987469270825386
0	6076	0.0013927576364949346
0	6048	-0.004858749452978373
0	6064	0.002768006408587098
0	5930	-0.023097341880202293
0	5760	-0.029266614466905594
0	5496	-0.04574385657906532
0	5228	-0.04692862927913666
0	5052	-0.030911900103092194
0	4952	-0.01747966557741165
0	4942	-0.0017469283193349838
0	4940	-0.00035045092226937413
0	4986	0.008092987351119518
0	5054	0.012008900754153728
0	5086	0.005671144463121891
0	5154	0.012093906290829182
0	5208	0.009633681736886501
0	5296	0.015745213255286217
0	5356	0.010762332007288933
0	5356	0.0
0	5428	0.012972661294043064
0	5442	0.0025269845500588417
0	5470	0.005063535179942846
0	5486	0.002898445585742593
0	5512	0.004717894364148378
0	5536	0.004363477695733309
0	5496	-0.007285267114639282
0	5518	0.004016113467514515
0	5530	0.0021957913413643837
0	5544	0.0025688388850539923
0	5548	0.0007361331372521818
0	5554	0.0011077332310378551
0	5562	0.0014817374758422375
0	5554	-0.00148619688116014
0	5542	-0.0022363581229001284
0	5558	0.00298901554197073
0	5540	-0.0033668773248791695
0	5576	0.006731908302754164
0	5584	0.0014927415177226067
0	5590	0.001115863909944892
0	5594	0.0007409785757772624
0	5578	-0.002952029462903738
0	5582	0.0007351229432970285
0	5570	-0.0021973461844027042
0	5590	0.0036507451441138983
0	5568	-0.004003542475402355
0	5560	-0.001452186843380332
0	5590	0.00543412659317255
0	5572	-0.003254698123782873
0	5620	0.00866791047155857
0	5670	0.00901474803686142
0	5708	0.006841259077191353
0	5752	0.007908833213150501
0	5734	-0.003229974303394556
0	5670	-0.0114673413336277
0	5614	-0.010024463757872581
0	5566	-0.008588401600718498
0	5520	-0.00822711642831564
0	5428	-0.01645403541624546
0	5404	-0.004294969141483307
0	5424	0.0035821322817355394
0	5442	0.0032263074535876513
0	5452	0.0017935932846739888
0	5404	-0.008614913560450077
0	5418	0.0025149399880319834
0	6248	0.14921079576015472
0	7340	0.19550271332263947
1	6450	-0.15764488279819489
0	4190	-0.3982565999031067
0	4778	0.10447265952825546
0	5382	0.10783403366804123
0	5506	0.02216607891023159
0	5532	0.004649721086025238
0	5580	0.008586659096181393
0	5584	0.0007155123166739941
0	5618	0.006082071922719479
0	5564	-0.009656882844865322
0	5624	0.010729613713920116
0	5634	0.0017879066290333867
0	5640	0.0010723477462306619
0	5638	-0.0003574066504370421
0	5660	0.0039322227239608765
0	5650	-0.0017878852086141706
0	5694	0.007871480658650398
0	5690	-0.0007157598156481981
0	5758	0.012166465632617474
0	5778	0.0035753019619733095
0	5808	0.005356186535209417
0	5858	0.008911702781915665
0	5900	0.0074667553417384624
0	5968	0.012053602375090122
0	5972	0.0007067637052386999
0	5976	0.0007045643869787455
0	5924	-0.009131244383752346
0	5822	-0.017856933176517487
0	5694	-0.022355996072292328
0	5454	-0.04205312579870224
0	5254	-0.035434603691101074
0	5088	-0.029619935899972916
0	4988	-0.01774853840470314
0	4934	-0.009572318755090237
0	4970	0.00639848317950964
0	4984	0.00249622599221766
0	5048	0.011448605917394161
0	5094	0.00825487170368433
0	5156	0.011158839799463749
0	5206	0.009024076163768768
0	5244	0.006873100996017456
0	5290	0.008339175023138523
0	5356	0.011989827267825603
0	5352	-0.0007279079873114824
0	5400	0.008750076405704021
0	5412	0.002190980361774564
0	5450	0.006948168855160475
0	5458	0.0014649510849267244
0	5472	0.00256729987449944
0	5508	0.006613189820200205
0	5510	0.00036800786620005965
0	5510	0.0
0	5502	-0.0014778871554881334
0	5518	0.0029630360659211874
0	5516	-0.00037141123902983963
0	5490	-0.00484201405197382
0	5504	0.0026151277124881744
0	5508	0.0007491384749300778
0	5534	0.004878964275121689
0	5526	-0.0015027237823233008
0	5562	0.006759209092706442
0	5552	-0.0018739458173513412
0	5574	0.00411076657474041
0	5574	0.0
0	5572	-0.00037087404052726924
0	5572	0.0
0	5590	0.0033134932164102793
0	5552	-0.006971965543925762
0	5572	0.0036592059768736362
0	5558	-0.0025549621786922216
0	5574	0.002913717646151781
0	5564	-0.0018174328142777085
0	5578	0.002540189540013671
0	5580	0.0003623976372182369
0	5556	-0.00434279115870595
0	5578	0.00397714925929904
0	5566	-0.0021671864669770002
0	5586	0.0036094568204134703
0	5576	-0.0018033398082479835
0	5568	-0.0014417704660445452
0	5606	0.006845942232757807
0	5586	-0.0036010516341775656
0	5592	0.0010798228904604912
0	5586	-0.0010792402317747474
0	5624	0.00683240219950676
0	5690	0.011859127320349216
0	5760	0.01256281416863203
0	5724	-0.006450996268540621
0	5636	-0.015748782083392143
0	5518	-0.02110484428703785
0	5550	0.005723620764911175
0	5462	-0.015741081908345222
0	5398	-0.011454206891357899
0	5384	-0.002508241217583418
0	5392	0.0014349089469760656
0	5468	0.0136463213711977
0	5412	-0.010061447508633137
0	5282	-0.023381855338811874
0	6026	0.13403312861919403
0	7358	0.2393101006746292
0	7320	-0.006754354573786259
1	5088	-0.39266738295555115
0	4446	-0.11326080560684204
0	5322	0.15557844936847687
0	5388	0.011739594861865044
0	5458	0.012463499791920185
0	5470	0.002138122683390975
0	5510	0.007131141610443592
0	5530	0.003567181993275881
0	5558	0.004995421040803194
0	5574	0.0028546960093080997
0	5612	0.0067811934277415276
0	5610	-0.00035684971953742206
0	5632	0.003924926742911339
0	5622	-0.001783569692634046
0	5668	0.00820451881736517
0	5678	0.0017838244093582034
0	5678	0.0
0	5722	0.007854805327951908
0	5736	0.0024979778099805117
0	5778	0.007484229747205973
0	5828	0.008897746913135052
0	5864	0.006392499431967735
0	5944	0.014166479930281639
0	5976	0.005647922866046429
0	5996	0.0035178649704903364
0	5976	-0.0035070080775767565
0	5896	-0.013981940224766731
0	5800	-0.01671852543950081
0	5598	-0.03522477671504021
0	5384	-0.037703052163124084
0	5156	-0.040631573647260666
0	5026	-0.023157769814133644
0	4960	-0.011716669425368309
0	4956	-0.0007116256165318191
0	5024	0.012128707021474838
0	5042	0.003218845697119832
0	5100	0.010398365557193756
0	5164	0.011502240784466267
0	5200	0.006484228186309338
0	5254	0.009747292846441269
0	5292	0.00687243789434433
0	5326	0.006160908844321966
0	5366	0.007260581944137812
0	5402	0.006545057520270348
0	5438	0.006553795654326677
0	5456	0.003281477838754654
0	5470	0.0025557084009051323
0	5492	0.004021202679723501
0	5498	0.001098230597563088
0	5526	0.00513252941891551
0	5512	-0.00257022213190794
0	5542	0.005518289748579264
0	5542	0.0
0	5540	-0.0003695263876579702
0	5546	0.0011115639936178923
0	5564	0.00334398471750319
0	5580	0.0029800336342304945
0	5566	-0.002612655283883214
0	5582	0.0029902441892772913
0	5584	0.00037381777656264603
0	5566	-0.0033601731993258
0	5582	0.002979220123961568
0	5574	-0.0014844870893284678
0	5582	0.0014788706321269274
0	5588	0.0011048909509554505
0	5606	0.0033032370265573263
0	5618	0.0021945866756141186
0	5624	0.0010938392952084541
0	5602	-0.0039995633997023106
0	5622	0.0036271309945732355
0	5604	-0.0032571719493716955
0	5604	0.0
0	5600	-0.0007212492055259645
0	5640	0.007202362176030874
0	5636	-0.0007192089105956256
0	5636	0.0
0	5618	-0.0032291242387145758
0	5608	-0.001792371622286737
0	5634	0.004656938835978508
0	5638	0.0007158708176575601
0	5640	0.0003576964372768998
0	5630	-0.0017871183808892965
0	5620	-0.0017861821688711643
0	5624	0.0007141411770135164
0	5596	-0.00499649066478014
0	5618	0.003924646880477667
0	5618	0.0
0	5620	0.0003565909864846617
0	5624	0.0007129531586542726
0	5630	0.0010691629722714424
0	5664	0.006056935526430607
0	5660	-0.0007121661910787225
0	5734	0.01316897850483656
0	5772	0.006756036076694727
0	5830	0.010300246998667717
0	5740	-0.015960276126861572
0	5686	-0.009568586014211178
0	5596	-0.01594124175608158
0	5596	0.0
0	5544	-0.009212343953549862
0	5458	-0.015242821536958218
0	5440	-0.0031931123230606318
0	5476	0.0063924239948391914
0	5520	0.00781870074570179
0	5520	0.0
0	5414	-0.018862329423427582
0	5374	-0.007127244956791401
0	6218	0.15060313045978546
0	7608	0.24713453650474548
0	7588	-0.0035147739108651876
1	5326	-0.3930313289165497
0	4222	-0.1921737939119339
0	5226	0.1762063056230545
0	5426	0.03518194705247879
0	5474	0.008453482761979103
0	5498	0.004229770507663488
0	5528	0.00529094273224473
0	5530	0.00035291624953970313
0	5584	0.009533785283565521
0	5582	-0.0003531863330863416
0	5632	0.008832153864204884
0	5664	0.005653643514961004
0	5654	-0.0017667219508439302
0	5676	0.0038886205293238163
0	5686	0.0017685550265014172
0	5726	0.007080230861902237
0	5770	0.007788897026330233
0	5744	-0.0046002501621842384
0	5814	0.012374487705528736
0	5868	0.009533785283565521
0	5908	0.007048623636364937
0	5966	0.010193560272455215
0	6036	0.012264778837561607
0	6066	0.005239198449999094
0	6094	0.0048744254745543
0	6088	-0.0010410521645098925
0	6020	-0.011752776801586151
0	5868	-0.026173504069447517
0	5636	-0.04002944752573967
0	5364	-0.04746945947408676
0	5074	-0.051274191588163376
0	4962	-0.019831901416182518
0	4900	-0.010930631309747696
0	4886	-0.0024729447904974222
0	4924	0.006733688525855541
0	4970	0.008177874609827995
0	5066	0.01712043769657612
0	5112	0.00822613574564457
0	5178	0.01183219812810421
0	5236	0.010423281230032444
0	5266	0.005402550101280212
0	5316	0.009024076163768768
0	5346	0.005425805225968361
0	5388	0.0076102581806480885
0	5402	0.002541173016652465
0	5412	0.0018182479543611407
0	5442	0.005465144291520119
0	5434	-0.001460280385799706
0	5480	0.008412479422986507
0	5492	0.002199037466198206
0	5476	-0.002938799560070038
0	5512	0.006629834417253733
0	5502	-0.001846767496317625
0	5538	0.006670289672911167
0	5534	-0.0007435681181959808
0	5532	-0.0003730786556843668
0	5556	0.004492475185543299
0	5532	-0.004505519289523363
0	5552	0.003762510372325778
0	5534	-0.0033880441915243864
0	5558	0.0045125787146389484
0	5544	-0.0026243766769766808
0	5550	0.0011206574272364378
0	5558	0.0014881875831633806
0	5558	0.0
0	5572	0.002583407098427415
0	5572	0.0
0	5566	-0.0010996798519045115
0	5568	0.0003655460604932159
0	5578	0.0018233978189527988
0	5570	-0.0014556924579665065
0	5570	0.0
0	5574	0.0007253910880535841
0	5560	-0.002535374602302909
0	5542	-0.0032563861459493637
0	5552	0.0018075774423778057
0	5528	-0.004334529396146536
0	5558	0.005415358114987612
0	5574	0.0028860378079116344
0	5568	-0.001081652706488967
0	5568	0.0
0	5572	0.0007203746354207397
0	5560	-0.002160345669835806
0	5544	-0.002879458712413907
0	5560	0.002879355102777481
0	5594	0.006117675453424454
0	5624	0.005395942367613316
0	5676	0.009349155239760876
0	5742	0.011856003664433956
0	5788	0.008253884501755238
0	5706	-0.014691127464175224
0	5596	-0.01969020813703537
0	5518	-0.013957816176116467
0	5502	-0.0028636883944272995
0	5454	-0.008593936450779438
0	5372	-0.014690426178276539
0	5338	-0.00609843572601676
0	5396	0.010417789220809937
0	5412	0.002876800950616598
0	5436	0.0043192398734390736
0	5290	-0.026297777891159058
0	5536	0.04438456892967224
0	6978	0.26022616028785706
0	7544	0.10128606110811234
1	5498	-0.36185064911842346
0	4126	-0.24271158874034882
0	4890	0.13630038499832153
0	5436	0.09777937084436417
0	5490	0.00967753492295742
0	5502	0.0021516429260373116
0	5520	0.0032287382055073977
0	5540	0.003588516730815172
0	5570	0.005383805371820927
0	5588	0.003230090020224452
0	5582	-0.001076413318514824
0	5618	0.0064576310105621815
0	5628	0.0017935289070010185
0	5656	0.005021760705858469
0	5666	0.0017937005031853914
0	5668	0.0003589031985029578
0	5708	0.007183220237493515
0	5716	0.0014366267714649439
0	5760	0.007895776070654392
0	5804	0.00788436271250248
0	5850	0.008227900601923466
0	5916	0.011777442879974842
0	5978	0.011027972213923931
0	6060	0.014530248008668423
0	6044	-0.0028240943793207407
0	6030	-0.002461927942931652
0	5972	-0.01016402617096901
0	5798	-0.030371086671948433
0	5576	-0.03869033604860306
0	5286	-0.05095645785331726
0	5032	-0.0452289953827858
0	4910	-0.02178441733121872
0	4840	-0.012441200204193592
0	4850	0.0017778410110622644
0	4882	0.005708916578441858
0	4924	0.007520143408328295
0	4994	0.01257695909589529
0	5022	0.005046681500971317
0	5094	0.013017695397138596
0	5172	0.014143073931336403
0	5240	0.01236093882471323
0	5258	0.0032788082025945187
0	5336	0.014239293523132801
0	5374	0.006949439644813538
0	5388	0.002564728958532214
0	5426	0.0069732447154819965
0	5448	0.004043126478791237
0	5482	0.006258436944335699
0	5492	0.0018433632794767618
0	5482	-0.0018464039312675595
0	5492	0.0018500701989978552
0	5508	0.0029666621703654528
0	5530	0.0040894728153944016
0	5512	-0.0033552460372447968
0	5520	0.00149631523527205
0	5558	0.007130793761461973
0	5530	-0.005269827786833048
0	5564	0.006416870281100273
0	5550	-0.002646135864779353
0	5560	0.001890406827442348
0	5554	-0.001132289064116776
0	5550	-0.0007523888489231467
0	5556	0.0011240725871175528
0	5574	0.003357206704095006
0	5554	-0.003713514655828476
0	5570	0.0029585070442408323
0	5576	0.0011050401953980327
0	5562	-0.002569247270002961
0	5562	0.0
0	5578	0.0029182881116867065
0	5608	0.005458316300064325
0	5582	-0.004720006603747606
0	5612	0.005435504950582981
0	5578	-0.0061499872244894505
0	5612	0.00614243233576417
0	5576	-0.006494990549981594
0	5596	0.003605075879022479
0	5566	-0.005402809474617243
0	5610	0.007920126430690289
0	5674	0.011512033641338348
0	5722	0.00862409733235836
0	5782	0.010765292681753635
0	5738	-0.007881632074713707
0	5698	-0.007156232837587595
0	5586	-0.020015249028801918
0	5578	-0.001429098891094327
0	5496	-0.014646518975496292
0	5448	-0.00857530813664198
0	5398	-0.008938786573708057
0	5416	0.0032208808697760105
0	5440	0.004298199433833361
0	5490	0.008960681036114693
0	5386	-0.018644899129867554
0	5610	0.04019908234477043
0	6886	0.2289418876171112
0	7388	0.08935776352882385
1	5808	-0.27824410796165466
0	4190	-0.2845485508441925
0	4876	0.12162113934755325
0	5462	0.10431500524282455
0	5562	0.017813457176089287
0	5580	0.0032072982285171747
0	5590	0.0017818536143749952
0	5624	0.006059093866497278
0	5626	0.00035631994251161814
0	5644	0.0032066127751022577
0	5640	-0.0007122930255718529
0	5660	0.00356053514406085
0	5660	0.0
0	5672	0.002134497044607997
0	5670	-0.0003557537274900824
0	5688	0.003202771069481969
0	5730	0.007477301172912121
0	5760	0.005341182928532362
0	5780	0.003559479024261236
0	5848	0.012088315561413765
0	5878	0.0053245616145431995
0	5954	0.013458473607897758
0	5986	0.005649850703775883
0	6046	0.01055693719536066
0	6060	0.002454217057675123
0	6048	-0.002096021082252264
0	5966	-0.014276429079473019
0	5830	-0.023598546162247658
0	5594	-0.04089837893843651
0	5338	-0.04469793662428856
0	5080	-0.045591093599796295
0	4958	-0.02165142446756363
0	4912	-0.008126730099320412
0	4894	-0.00317935086786747
0	4940	0.008152269758284092
0	4992	0.009249596856534481
0	5054	0.011066948994994164
0	5114	0.010744215920567513
0	5178	0.011495491489768028
0	5230	0.009365206584334373
0	5274	0.00794415082782507
0	5318	0.007961687631905079
0	5362	0.007978144101798534
0	5384	0.00399627024307847
0	5438	0.00982616189867258
0	5468	0.005466671660542488
0	5496	0.005109054036438465
0	5520	0.004385430831462145
0	5514	-0.0010979627259075642
0	5530	0.0029326588846743107
0	5512	-0.003305663587525487
0	5546	0.00625805277377367
0	5530	-0.002952356357127428
0	5564	0.006291402969509363
0	5532	-0.005938977003097534
0	5548	0.002979220123961568
0	5568	0.003735617734491825
0	5554	-0.002621428342536092
0	5588	0.006377311889082193
0	5594	0.0011254501296207309
0	5578	-0.0029964041896164417
0	5602	0.0044806767255067825
0	5584	-0.0033470937050879
0	5592	0.0014814265305176377
0	5584	-0.0014750713016837835
0	5580	-0.0007346279453486204
0	5576	-0.0007319930009543896
0	5592	0.0029186783358454704
0	5610	0.0032739972230046988
0	5604	-0.0010884815128520131
0	5602	-0.000362008431693539
0	5618	0.0028903475031256676
0	5612	-0.001081925816833973
0	5672	0.010803025215864182
0	5676	0.0007189589086920023
0	5728	0.009333157911896706
0	5778	0.008960251696407795
0	5754	-0.004293688107281923
0	5686	-0.012148497626185417
0	5578	-0.01927492953836918
0	5586	0.0014273650012910366
0	5540	-0.008203737437725067
0	5476	-0.011414303444325924
0	5424	-0.00927709974348545
0	5416	-0.0014284354401752353
0	5468	0.00929124467074871
0	5474	0.001072577782906592
0	5428	-0.008227705024182796
0	5650	0.03973747044801712
0	6822	0.2097076177597046
0	7342	0.09236781299114227
1	6086	-0.22079762816429138
0	4180	-0.3341163098812103
0	4818	0.11276468634605408
0	5460	0.11399147659540176
0	5580	0.02132246643304825
0	5598	0.0031983701046556234
0	5598	0.0
0	5642	0.007816941477358341
0	5618	-0.004262978211045265
0	5664	0.008170031011104584
0	5680	0.0028407073114067316
0	5652	-0.004969414323568344
0	5684	0.005677987355738878
0	5680	-0.0007096980116330087
0	5724	0.0078064934350550175
0	5702	-0.0039033389184623957
0	5722	0.003550085937604308
0	5774	0.009231970645487309
0	5782	0.0014195640105754137
0	5834	0.009216045029461384
0	5900	0.011680175550282001
0	5940	0.007063892669975758
0	5986	0.008101348765194416
0	6074	0.015447269193828106
0	6098	0.0041967337019741535
0	6068	-0.00522672338411212
0	5978	-0.015626266598701477
0	5800	-0.030807217583060265
0	5572	-0.039426811039447784
0	5310	-0.045635055750608444
0	5064	-0.04335973039269447
0	4962	-0.018087031319737434
0	4914	-0.008472382090985775
0	4914	0.0
0	4962	0.008494873531162739
0	5026	0.011367942206561565
0	5054	0.004990376066416502
0	5138	0.015019669197499752
0	5196	0.010401970706880093
0	5256	0.010787874460220337
0	5308	0.009372408501803875
0	5318	0.001806423650123179
0	5368	0.009050319902598858
0	5398	0.005440564826130867
0	5414	0.002906589535996318
0	5460	0.008372160606086254
0	5476	0.0029163374565541744
0	5506	0.005476317834109068
0	5496	-0.0018284209072589874
0	5510	0.0025642591062933207
0	5520	0.001835244009271264
0	5538	0.003311136271804571
0	5520	-0.003319318639114499
0	5518	-0.00036987263592891395
0	5550	0.005938315764069557
0	5532	-0.003351663937792182
0	5528	-0.0007473003352060914
0	5538	0.0018735011108219624
0	5544	0.0011259429156780243
0	5578	0.006381461396813393
0	5562	-0.002998013747856021
0	5558	-0.0007471793796867132
0	5588	0.005583126563578844
0	5576	-0.0022239519748836756
0	5570	-0.0011074469657614827
0	5586	0.0029421860817819834
0	5584	-0.0003665151889435947
0	5582	-0.0003653323801700026
0	5592	0.0018217370379716158
0	5594	0.00036347334389574826
0	5562	-0.005803690291941166
0	5602	0.007243489846587181
0	5580	-0.0039771017618477345
0	5596	0.002888747025281191
0	5584	-0.0021639815531671047
0	5626	0.00756620429456234
0	5666	0.007198733277618885
0	5698	0.005752429831773043
0	5726	0.005027592182159424
0	5754	0.005020680837333202
0	5682	-0.01289151981472969
0	5596	-0.01538333110511303
0	5586	-0.0017881410894915462
0	5528	-0.010367139242589474
0	5462	-0.01179638784378767
0	5436	-0.0046494994312524796
0	5460	0.004294303245842457
0	5480	0.0035800377372652292
0	5514	0.006088171154260635
0	5434	-0.014327673241496086
0	5476	0.007528501097112894
0	6590	0.1997871845960617
0	7420	0.14794129133224487
0	6754	-0.11743132770061493
1	4406	-0.411160409450531
0	4834	0.07546016573905945
0	5488	0.11581781506538391
0	5518	0.00531575595960021
0	5580	0.010990049690008163
0	5596	0.00283634290099144
0	5648	0.00921800546348095
0	5662	0.002480510389432311
0	5666	0.000708466162905097
0	5688	0.003894586581736803
0	5698	0.0017693061381578445
0	5702	0.0007072468870319426
0	5724	0.0038881164509803057
0	5732	0.0014133775839582086
0	5764	0.0056523787789046764
0	5772	0.0014127785107120872
0	5796	0.004237886518239975
0	5858	0.010940533131361008
0	5864	0.0010571321472525597
0	5930	0.011609498411417007
0	5944	0.0024568301159888506
0	6008	0.011199644766747952
0	6074	0.011511226184666157
0	6088	0.002433090005069971
0	6114	0.004502736497670412
0	6078	-0.006213038228452206
