0	5422	-0.008170844987034798
0	5468	0.0085371732711792
0	5454	-0.002596535487100482
0	5452	-0.0003707227879203856
0	5486	0.00629761815071106
0	5434	-0.009626658633351326
0	5494	0.011100832372903824
0	5468	-0.004807810764759779
0	5482	0.002587290247902274
0	5526	0.00812307745218277
0	5496	-0.005533693823963404
0	5572	0.01400680746883154
0	5532	-0.007365849334746599
0	5546	0.0025760550051927567
0	5592	0.008457022719085217
0	5554	-0.006977512501180172
0	5606	0.00953405350446701
0	5544	-0.011352400295436382
0	5570	0.0047540683299303055
0	5500	-0.012786166742444038
0	5346	-0.02811245061457157
0	5298	-0.008758485317230225
0	5160	-0.02517911233007908
0	5160	0.0
0	5182	0.004055648576468229
0	5154	-0.005192685406655073
0	5248	0.01741170696914196
0	5220	-0.005165797658264637
0	5312	0.016958942636847496
0	5282	-0.005530158057808876
0	5306	0.004429134074598551
0	5362	0.010342026129364967
0	5316	-0.008500782772898674
0	5396	0.014796547591686249
0	5338	-0.01073120255023241
0	5388	0.009259487502276897
0	5410	0.00407533161342144
0	5368	-0.0077842166647315025
0	5436	0.01261080801486969
0	5402	-0.006307197734713554
0	5424	0.004084259737282991
0	5458	0.006314850877970457
0	5426	-0.005947586614638567
0	5490	0.011902990750968456
0	5420	-0.013023417443037033
0	5452	0.005959919188171625
0	5454	0.00037273101042956114
0	5434	-0.0037308328319340944
0	5470	0.006720095407217741
0	5418	-0.009712847881019115
0	5476	0.010839095339179039
0	5454	-0.004108054097741842
0	5430	-0.004477166570723057
0	5494	0.01191909983754158
0	5472	-0.004088712856173515
0	5452	-0.003710345597937703
0	5484	0.005925633478909731
0	5428	-0.010354774072766304
0	5526	0.01809765212237835
0	5526	0.0
0	5510	-0.002946411957964301
0	5518	0.0014713635900989175
0	5450	-0.012494640424847603
0	5474	0.004406257066875696
0	5470	-0.0007340257870964706
0	5456	-0.0025670176837593317
0	5486	0.005498466081917286
0	5406	-0.014655772596597672
0	5382	-0.004395711701363325
0	5528	0.026749396696686745
0	6372	0.1545146107673645
0	6382	0.0018202116480097175
1	5178	-0.21793170273303986
0	4620	-0.1011529266834259
0	4958	0.06159565597772598
0	5394	0.07967836409807205
0	5528	0.024496957659721375
0	5496	-0.005847383290529251
0	5596	0.01826617494225502
0	5562	-0.0062057385221123695
0	5560	-0.00036472390638664365
0	5612	0.009477982297539711
0	5562	-0.009104704484343529
0	5596	0.006186242215335369
0	5576	-0.003636716166511178
0	5594	0.0032709829974919558
0	5602	0.0014525207225233316
0	5570	-0.0058059366419911385
0	5632	0.011239349842071533
0	5554	-0.014130775816738605
0	5632	0.014128387905657291
0	5646	0.0025339978747069836
0	5622	-0.004340643994510174
0	5682	0.010840369388461113
0	5622	-0.010826807469129562
0	5676	0.009735225699841976
0	5612	-0.011522810906171799
0	5504	-0.019430052489042282
0	5412	-0.016541805118322372
0	5274	-0.02480824664235115
0	5244	-0.005401317961513996
0	5258	0.002537794876843691
0	5258	0.0
0	5278	0.003648436861112714
0	5318	0.007267794106155634
0	5286	-0.005801585502922535
0	5378	0.01669045351445675
0	5328	-0.009079134091734886
0	5410	0.014904935844242573
0	5380	-0.005459177307784557
0	5398	0.0032791264820843935
0	5442	0.008023535832762718
0	5406	-0.0065715014934539795
0	5468	0.011328339576721191
0	5432	-0.00658287713304162
0	5430	-0.00036603669286705554
0	5466	0.006595258601009846
0	5416	-0.009167695418000221
0	5466	0.009176332503557205
0	5432	-0.006246249191462994
0	5468	0.006618620362132788
0	5434	-0.006257208064198494
0	5432	-0.0003685503907036036
0	5496	0.011807391420006752
0	5456	-0.0073880706913769245
0	5470	0.002588470233604312
0	5448	-0.004072766751050949
0	5422	-0.004818146117031574
0	5486	0.011866061948239803
0	5450	-0.006671608425676823
0	5514	0.011847755871713161
0	5408	-0.019590206444263458
0	5518	0.020310692489147186
0	5550	0.0058991252444684505
0	5512	-0.006993521470576525
0	5618	0.019485054537653923
0	5486	-0.024215148761868477
0	5500	0.002566578332334757
0	5482	-0.0032964213751256466
0	5460	-0.004027189686894417
0	5496	0.006586731411516666
0	5444	-0.009508484974503517
0	5472	0.005119890905916691
0	5358	-0.020836886018514633
0	5352	-0.0010974138276651502
0	6002	0.11894450336694717
0	6566	0.10284839570522308
0	5782	-0.14201697707176208
1	4698	-0.195927232503891
0	4870	0.031232597306370735
0	5356	0.08855146914720535
0	5496	0.0255260169506073
0	5468	-0.005103280767798424
0	5554	0.015670934692025185
0	5556	0.0003643119998741895
0	5550	-0.001092272810637951
0	5568	0.0032752284314483404
0	5522	-0.008363940753042698
0	5598	0.013810314238071442
0	5520	-0.014164133928716183
0	5572	0.009438756853342056
0	5594	0.003991919569671154
0	5586	-0.001449975767172873
0	5642	0.010145662352442741
0	5598	-0.007967165671288967
0	5632	0.006153252441436052
0	5676	0.007962360046803951
0	5622	-0.009760799817740917
0	5724	0.018423523753881454
0	5654	-0.012625199742615223
0	5686	0.005764796398580074
0	5608	-0.014035677537322044
0	5510	-0.0176172386854887
0	5432	-0.014018691144883633
0	5278	-0.02766566351056099
0	5276	-0.000359453639248386
0	5276	0.0
0	5282	0.0010915441671386361
0	5346	0.011678547598421574
0	5304	-0.0076339575462043285
0	5396	0.01667814701795578
0	5380	-0.002899846527725458
0	5394	0.0025391452945768833
0	5454	0.010886920616030693
0	5424	-0.005446754861623049
0	5494	0.01271925587207079
0	5504	0.001817653072066605
0	5448	-0.010182805359363556
0	5512	0.011642714031040668
0	5468	-0.008008542470633984
0	5516	0.0087393494322896
0	5508	-0.0014570533530786633
0	5506	-0.0003644536482170224
0	5526	0.0036463080905377865
0	5494	-0.005838208831846714
0	5522	0.005111665930598974
0	5532	0.0018268176354467869
0	5482	-0.009142104536294937
0	5574	0.016835838556289673
0	5520	-0.009890955872833729
0	5512	-0.0014665264170616865
0	5538	0.00477128429338336
0	5518	-0.003671790938824415
0	5566	0.00881186593323946
0	5520	-0.008437787182629108
0	5560	0.007326364982873201
0	5596	0.00658231507986784
0	5592	-0.0007299447897821665
0	5676	0.01529998891055584
0	5548	-0.023267649114131927
0	5588	0.007260406389832497
0	5490	-0.01776735670864582
0	5554	0.011595463380217552
0	5522	-0.005792134907096624
0	5526	0.0007237199461087584
0	5548	0.003978012595325708
0	5414	-0.02422182820737362
0	5392	-0.00397887546569109
0	6004	0.11072246730327606
0	6370	0.06602048873901367
0	5652	-0.12881696224212646
0	4822	-0.14878995716571808
0	4760	-0.011160178110003471
0	5062	0.054605286568403244
0	5466	0.07325299084186554
0	5578	0.02031119540333748
0	5552	-0.004713503178209066
0	5632	0.014501335099339485
0	5600	-0.005795281380414963
0	5568	-0.005794371943920851
0	5654	0.015567864291369915
0	5578	-0.013745870441198349
0	5584	0.001084938645362854
0	5632	0.008676057681441307
0	5586	-0.008311250247061253
0	5662	0.01372617483139038
0	5570	-0.016605699434876442
0	5634	0.011553597636520863
0	5632	-0.00036095871473662555
0	5614	-0.003249488305300474
0	5692	0.014075526967644691
0	5620	-0.01298467069864273
0	5674	0.009730898775160313
0	5634	-0.007202880922704935
0	5612	-0.003958922810852528
0	5578	-0.0061151813715696335
0	5356	-0.0399213582277298
0	5322	-0.006116208154708147
0	5212	-0.019796041771769524
0	5138	-0.013380910269916058
0	5230	0.01676018349826336
0	5214	-0.0029223032761365175
0	5252	0.0069239456206560135
0	5310	0.01053664181381464
0	5274	-0.006530177779495716
0	5340	0.011985907331109047
0	5312	-0.005092266947031021
0	5336	0.004371160175651312
0	5406	0.012772168964147568
0	5344	-0.011325855739414692
0	5440	0.01756076142191887
0	5400	-0.0073265437968075275
0	5432	0.005867612082511187
0	5418	-0.002569467294961214
0	5392	-0.004778123460710049
0	5456	0.011775529012084007
0	5384	-0.013264228589832783
0	5418	0.006270826328545809
0	5412	-0.00110808783210814
0	5410	-0.000369863526429981
0	5482	0.013331851921975613
0	5402	-0.014832393266260624
0	5464	0.01151061337441206
0	5424	-0.007435865234583616
0	5454	0.005584165453910828
0	5432	-0.004099073354154825
0	5390	-0.007832605391740799
0	5494	0.019390925765037537
0	5494	0.0
0	5530	0.006693357136100531
0	5502	-0.005193328019231558
0	5424	-0.014442839659750462
0	5472	0.008876396343111992
0	5390	-0.015143307857215405
0	5462	0.01329001784324646
0	5410	-0.009587256237864494
0	5410	0.0
0	5414	0.0007367205689661205
0	5248	-0.030559269711375237
0	5502	0.046804748475551605
0	6286	0.14432811737060547
0	6064	-0.04065735638141632
1	4992	-0.195534810423851
0	4688	-0.0555989071726799
0	5078	0.07164639979600906
0	5452	0.0688394233584404
0	5470	0.0033132086973637342
0	5514	0.008094683289527893
0	5560	0.008457643911242485
0	5522	-0.006980418227612972
0	5584	0.011381298303604126
0	5518	-0.01210801862180233
0	5568	0.009166238829493523
0	5584	0.002931333612650633
0	5574	-0.0018302949611097574
0	5598	0.004389494191855192
0	5544	-0.009866377338767052
0	5652	0.019714264199137688
0	5650	-0.00036472835927270353
0	5654	0.0007287655607797205
0	5720	0.01201558392494917
0	5662	-0.010545198805630207
0	5754	0.016702774912118912
0	5686	-0.012324496172368526
0	5722	0.006513086147606373
0	5692	-0.005419075023382902
0	5600	-0.01659032702445984
0	5502	-0.01765214465558529
0	5326	-0.03168506920337677
0	5306	-0.0035988916642963886
0	5230	-0.013691884465515614
0	5282	0.009427919052541256
0	5340	0.010565688833594322
0	5280	-0.010906974785029888
0	5368	0.01593971997499466
0	5354	-0.0025314318481832743
0	5410	0.010131712071597576
0	5442	0.005791645497083664
0	5412	-0.005432027392089367
0	5516	0.018847864121198654
0	5452	-0.011599105782806873
0	5516	0.011608363129198551
0	5514	-0.00036276571336202323
0	5526	0.0021773052867501974
0	5564	0.006897218991070986
0	5490	-0.01343224011361599
0	5546	0.010171584784984589
0	5538	-0.0014530658954754472
0	5532	-0.0010905521921813488
0	5578	0.008366881869733334
0	5530	-0.008734683506190777
0	5576	0.008380397222936153
0	5528	-0.008749331347644329
0	5556	0.0051107946783304214
0	5602	0.008402951993048191
0	5530	-0.013162064366042614
0	5554	0.004391689784824848
0	5578	0.004392922390252352
0	5528	-0.00914768036454916
0	5526	-0.0003654570027720183
0	5544	0.0032847116235643625
0	5518	-0.004735538270324469
0	5612	0.017096297815442085
0	5580	-0.005810434464365244
0	5586	0.0010874818544834852
0	5550	-0.00651630898937583
0	5470	-0.014463582076132298
0	5522	0.009397930465638638
0	5464	-0.010477257892489433
0	5532	0.01227983646094799
0	5504	-0.005055916029959917
0	5382	-0.02202245593070984
0	5382	0.0
0	5746	0.06581167876720428
0	6698	0.17189493775367737
0	6000	-0.12517784535884857
1	4876	-0.200963094830513
0	4806	-0.012565670534968376
0	5304	0.08978904783725739
0	5438	0.024193257093429565
0	5546	0.01951548457145691
0	5498	-0.008672713302075863
0	5532	0.00614605937153101
0	5542	0.001807620981708169
0	5518	-0.004338656552135944
0	5578	0.010852133855223656
0	5512	-0.011933892965316772
0	5570	0.01049001608043909
0	5544	-0.004702648147940636
0	5550	0.0010851217666640878
0	5612	0.011211303062736988
0	5556	-0.010122189298272133
0	5630	0.013372688554227352
0	5610	-0.003613848239183426
0	5616	0.0010839586611837149
0	5668	0.009392611682415009
0	5614	-0.00974693987518549
0	5684	0.012623985297977924
0	5622	-0.01117036584764719
0	5590	-0.00575988506898284
0	5524	-0.011875629425048828
0	5368	-0.028066303580999374
0	5340	-0.005037964787334204
0	5200	-0.025196170434355736
0	5214	0.0025278970133513212
0	5218	0.0007287655607797205
0	5192	-0.004759580362588167
0	5280	0.016078345477581024
0	5236	-0.008016032166779041
0	5286	0.009112890809774399
0	5328	0.007661903742700815
0	5288	-0.007306736893951893
0	5398	0.020119253545999527
0	5340	-0.010617007501423359
0	5416	0.01392910722643137
0	5384	-0.005868544802069664
0	5354	-0.005508292932063341
0	5450	0.017643598839640617
0	5374	-0.013978124596178532
0	5446	0.013256250880658627
0	5432	-0.002579250605776906
0	5366	-0.012172779999673367
0	5436	0.012925622053444386
0	5400	-0.006655409932136536
0	5452	0.009625826962292194
0	5440	-0.0022235948126763105
0	5406	-0.006309070158749819
0	5462	0.010404796339571476
0	5420	-0.007814341224730015
0	5480	0.011177347041666508
0	5446	-0.006338159088045359
0	5434	-0.0022380822338163853
0	5500	0.012304403819143772
0	5400	-0.01862451806664467
0	5454	0.010044767521321774
0	5442	-0.0022288537584245205
0	5520	0.014467485249042511
0	5522	0.00037021038588136435
0	5468	-0.009980778209865093
0	5482	0.0025839158333837986
0	5400	-0.015116136521100998
0	5402	0.0003685231786221266
0	5448	0.008470103144645691
0	5384	-0.011780875734984875
0	5436	0.009569377638399601
0	5322	-0.02097644843161106
0	5340	0.0033133304677903652
0	6158	0.15058541297912598
0	6546	0.07111784815788269
1	5714	-0.1514158844947815
0	4566	-0.2085856795310974
0	4960	0.07196522504091263
0	5324	0.066650390625
0	5436	0.02052184008061886
0	5428	-0.0014655236154794693
0	5514	0.01575668714940548
0	5440	-0.013551955111324787
0	5480	0.007323861122131348
0	5528	0.008787667378783226
0	5466	-0.011343262158334255
0	5526	0.01097828708589077
0	5514	-0.0021945866756141186
0	5522	0.0014623446622863412
0	5560	0.006945206318050623
0	5524	-0.0065732612274587154
0	5586	0.011315795592963696
0	5596	0.001823530881665647
0	5606	0.0018226888496428728
0	5644	0.006922684144228697
0	5596	-0.008735107257962227
0	5664	0.012366184033453465
0	5614	-0.00907825492322445
0	5590	-0.004351978190243244
0	5546	-0.007971784099936485
0	5404	-0.02570197731256485
0	5342	-0.011224158108234406
0	5214	-0.023169657215476036
0	5258	0.007970629259943962
0	5192	-0.01202127430588007
0	5244	0.009549812413752079
0	5270	0.004788683727383614
0	5270	0.0
0	5326	0.010250277817249298
0	5296	-0.005491152871400118
0	5370	0.013556424528360367
0	5346	-0.004398235585540533
0	5348	0.0003668961871881038
0	5398	0.009177567437291145
0	5380	-0.0033055825624614954
0	5466	0.015807662159204483
0	5392	-0.013601941056549549
0	5440	0.008830131031572819
0	5434	-0.0011042673140764236
0	5394	-0.0073657589964568615
0	5484	0.01658986136317253
0	5398	-0.015856431797146797
0	5444	0.008491158485412598
0	5434	-0.00184763188008219
0	5402	-0.0059186918660998344
0	5432	0.005557064898312092
0	5436	0.0007416930166073143
0	5484	0.00891287624835968
0	5454	-0.005575033836066723
0	5420	-0.006323698908090591
0	5480	0.011168193072080612
0	5450	-0.005581464618444443
0	5494	0.008180668577551842
0	5450	-0.008166497573256493
0	5398	-0.009639864787459373
0	5506	0.019995803013443947
0	5470	-0.0066545079462230206
0	5580	0.02030819281935692
0	5574	-0.001105610397644341
0	5506	-0.012511192820966244
0	5542	0.006615052931010723
0	5494	-0.00881078839302063
0	5564	0.012837441638112068
0	5506	-0.010622710920870304
0	5562	0.010249651968479156
0	5510	-0.00950697809457779
0	5444	-0.012063314206898212
0	5486	0.007674223277717829
0	6016	0.09681426733732224
0	6792	0.1412501484155655
1	5902	-0.160638228058815
0	4688	-0.21856807172298431
0	4990	0.054604630917310715
0	5486	0.08992784470319748
0	5604	0.021387401968240738
0	5730	0.022809557616710663
0	5686	-0.007950945757329464
0	5754	0.012269348837435246
0	5718	-0.006485006306320429
0	5768	0.008992697112262249
0	5798	0.005384385585784912
0	5740	-0.010390045121312141
0	5808	0.012160374782979488
0	5792	-0.00285591883584857
0	5816	0.004275179002434015
0	5890	0.01314916554838419
0	5810	-0.01418305654078722
0	5916	0.01875486597418785
0	5882	-0.0060038138180971146
0	5894	0.002115158597007394
0	5954	0.010551738552749157
0	5888	-0.011578947305679321
0	5932	0.007701553404331207
0	5932	0.0
0	5836	-0.016725903376936913
0	5766	-0.012176595628261566
0	5620	-0.0253592561930418
0	5556	-0.011105069890618324
0	5546	-0.0017344648949801922
0	5498	-0.008348116651177406
0	5594	0.01682243123650551
0	5564	-0.005266484338790178
0	5614	0.008732709102332592
0	5626	0.0020882640965282917
0	5622	-0.0006955231074243784
0	5702	0.013909012079238892
0	5636	-0.011476797051727772
0	5738	0.017742009833455086
0	5740	0.0003479148435872048
0	5688	-0.009044632315635681
0	5764	0.013225210830569267
0	5696	-0.011835417710244656
0	5748	0.009052924811840057
0	5738	-0.0017415534239262342
0	5692	-0.008013658225536346
0	5730	0.0066247484646737576
0	5710	-0.0034899546299129725
0	5718	0.0013967943377792835
0	5700	-0.0031464132480323315
0	5648	-0.00909928698092699
0	5720	0.01261711772531271
0	5632	-0.01544202771037817
0	5678	0.008084073662757874
0	5660	-0.003168047172948718
0	5634	-0.00458338251337409
0	5664	0.005294803064316511
0	5610	-0.00953636784106493
0	5668	0.010243368335068226
0	5606	-0.010942593216896057
0	5634	0.004940072540193796
0	5624	-0.001762901432812214
0	5548	-0.01339568942785263
0	5622	0.01304439827799797
0	5590	-0.005640555173158646
0	5690	0.01763046532869339
0	5570	-0.021148107945919037
0	5520	-0.0088185491040349
0	5532	0.002117896219715476
0	5450	-0.014489850960671902
0	5500	0.008850392885506153
0	5436	-0.011341082863509655
0	5440	0.0007101936498656869
0	5370	-0.01244724728167057
0	5292	-0.013900934718549252
0	6058	0.13687697052955627
0	6554	0.08843771368265152
0	5810	-0.1320100873708725
1	4748	-0.18832236528396606
0	4692	-0.009987634606659412
0	5182	0.08791865408420563
0	5374	0.03454604372382164
0	5352	-0.0039666322991251945
0	5464	0.02022780478000641
0	5428	-0.006510181352496147
0	5436	0.0014487329171970487
0	5456	0.0036261663772165775
0	5404	-0.00943989958614111
0	5480	0.013813995756208897
0	5404	-0.013829749077558517
0	5458	0.009838455356657505
0	5434	-0.004377325531095266
0	5436	0.0003651989682111889
0	5484	0.008770754560828209
0	5440	-0.008046621456742287
0	5474	0.006223534699529409
0	5480	0.0010997202480211854
0	5468	-0.00220065051689744
0	5532	0.011740533635020256
0	5466	-0.0121074253693223
0	5496	0.005502836778759956
0	5432	-0.011739672161638737
0	5314	-0.021645549684762955
0	5238	-0.013951951637864113
0	5064	-0.03196844831109047
0	5070	0.0011039016535505652
0	5044	-0.004812735132873058
0	5034	-0.001868460443802178
0	5104	0.013142743147909641
0	5054	-0.009366803802549839
0	5152	0.018317528069019318
0	5098	-0.010095219127833843
0	5102	0.0007490823627449572
0	5192	0.01688069850206375
0	5156	-0.006763780955225229
0	5218	0.011668611317873001
0	5216	-0.00037692231126129627
0	5212	-0.0007549828733317554
0	5256	0.008314855396747589
0	5182	-0.014003835618495941
0	5270	0.016676563769578934
0	5246	-0.004553561098873615
0	5238	-0.0015196605818346143
0	5290	0.009890193119645119
0	5250	-0.007617210038006306
0	5264	0.0026692429091781378
0	5288	0.004581959918141365
0	5246	-0.008028239011764526
0	5312	0.012633674778044224
0	5246	-0.012651434168219566
0	5336	0.01727624051272869
0	5294	-0.008070508018136024
0	5324	0.005769748706370592
0	5340	0.0030770020093768835
0	5266	-0.01422183495014906
0	5366	0.0191938579082489
0	5322	-0.008429333567619324
0	5384	0.011856649070978165
0	5436	0.0099221495911479
0	5358	-0.01485186256468296
0	5384	0.00494108721613884
0	5318	-0.01252435240894556
0	5344	0.0049269795417785645
0	5342	-0.00037841996527276933
0	5324	-0.003402560716494918
0	5368	0.008308575488626957
0	5260	-0.020374538376927376
0	5254	-0.0011316057061776519
0	5478	0.04223546013236046
0	6174	0.1310487687587738
0	5866	-0.057634010910987854
1	4838	-0.1916504204273224
0	4634	-0.03812846541404724
0	5052	0.07842107117176056
0	5342	0.05448806285858154
0	5476	0.025162743404507637
0	5458	-0.003375590778887272
0	5490	0.005994679406285286
0	5528	0.007107852026820183
0	5464	-0.01195501908659935
0	5514	0.009327198378741741
0	5498	-0.00298140337690711
0	5468	-0.005583057180047035
0	5532	0.011899891309440136
0	5444	-0.016342904418706894
0	5472	0.0051942914724349976
0	5538	0.012235665693879128
0	5476	-0.011478789150714874
0	5574	0.01813359558582306
0	5550	-0.00443710433319211
0	5578	0.005170503165572882
0	5626	0.00885314866900444
0	5562	-0.011781887151300907
0	5612	0.009192302823066711
0	5508	-0.01908840611577034
0	5320	-0.03446716442704201
0	5268	-0.009536268189549446
0	5110	-0.028974168002605438
0	5140	0.005506271030753851
0	5116	-0.004414144903421402
0	5134	0.0033322228118777275
0	5208	0.013761297799646854
0	5162	-0.008534745313227177
0	5248	0.015904327854514122
0	5240	-0.001477686921134591
0	5230	-0.0018482693703845143
0	5302	0.01332773920148611
0	5284	-0.0033351448364555836
0	5338	0.010018181055784225
0	5344	0.0011144406162202358
0	5350	0.001115269260481
0	5380	0.005582018755376339
0	5332	-0.008937770500779152
0	5420	0.01639975793659687
0	5336	-0.015665210783481598
0	5350	0.0026126226875931025
0	5400	0.00933788251131773
0	5334	-0.012336602434515953
0	5402	0.012721694074571133
0	5370	-0.005993107799440622
0	5374	0.000749981205444783
0	5382	0.001501877442933619
0	5356	-0.004888565745204687
0	5438	0.015437716618180275
0	5418	-0.0037694124039262533
0	5490	0.01357756182551384
0	5484	-0.0011302557541057467
0	5422	-0.011663489043712616
0	5432	0.001877534668892622
0	5338	-0.01761663146317005
0	5424	0.016095023602247238
0	5402	-0.004109896253794432
0	5400	-0.00037317609530873597
0	5444	0.008197738789021969
0	5288	-0.029029376804828644
0	5432	0.026788370683789253
0	6104	0.12485600262880325
0	5992	-0.020706485956907272
1	5082	-0.16750933229923248
0	4770	-0.05752212554216385
0	5068	0.05513549596071243
0	5444	0.06968813389539719
0	5500	0.010374980978667736
0	5542	0.007773171178996563
0	5614	0.013315415009856224
0	5566	-0.008861756883561611
0	5640	0.013643738813698292
0	5598	-0.007732338272035122
0	5564	-0.0062493872828781605
0	5638	0.01358812116086483
0	5562	-0.013932513073086739
0	5624	0.011352954432368279
0	5576	-0.00877642072737217
0	5596	0.003651945386081934
0	5650	0.009850779548287392
0	5616	-0.006193604785948992
0	5680	0.01164963748306036
0	5664	-0.002908949973061681
0	5678	0.002541603520512581
0	5704	0.004713105037808418
0	5614	-0.016278592869639397
0	5650	0.006503986660391092
0	5488	-0.029224293306469917
0	5384	-0.0187513530254364
0	5224	-0.028858641162514687
0	5128	-0.01732184924185276
0	5180	0.009399855509400368
0	5100	-0.01454228162765503
0	5174	0.013524709269404411
0	5156	-0.003287951461970806
0	5194	0.006924955639988184
0	5254	0.0109257772564888
0	5228	-0.004739969968795776
0	5298	0.012782585807144642
0	5256	-0.0076809595339000225
0	5324	0.01246303878724575
0	5332	0.0014684107154607773
0	5326	-0.0011033874470740557
0	5396	0.012894351966679096
0	5366	-0.005531857255846262
0	5404	0.007018753327429295
0	5398	-0.0011093034408986568
0	5396	-0.0003702835238073021
0	5446	0.009267382323741913
0	5420	-0.0048235091380774975
0	5462	0.007802920415997505
0	5474	0.002231534104794264
0	5418	-0.01042714063078165
0	5462	0.00820528157055378
0	5434	-0.005228562746196985
0	5452	0.0033668773248791695
0	5548	0.017974836751818657
0	5506	-0.007868999615311623
0	5540	0.006369426846504211
0	5440	-0.018715376034379005
0	5452	0.0022428228985518217
0	5448	-0.0007461016066372395
0	5420	-0.005214023403823376
0	5464	0.008177222684025764
0	5418	-0.008533583953976631
0	5464	0.008519780822098255
0	5322	-0.02625642530620098
0	5346	0.004435846582055092
0	6278	0.17213357985019684
0	6224	-0.009913592599332333
1	5298	-0.16899865865707397
0	4792	-0.09236160665750504
0	5252	0.08424188196659088
0	5452	0.036643460392951965
0	5566	0.020879629999399185
0	5552	-0.002561038127169013
0	5606	0.009869382716715336
0	5574	-0.005841121543198824
0	5568	-0.0010940253268927336
0	5618	0.009110122919082642
0	5544	-0.01346678752452135
0	5596	0.009458443149924278
0	5570	-0.004725726321339607
0	5560	-0.0018159146420657635
0	5612	0.009437158703804016
0	5540	-0.01305277831852436
0	5628	0.015944916754961014
0	5592	-0.006519770715385675
0	5646	0.009774581529200077
0	5654	0.0014471604954451323
0	5628	-0.004697210621088743
0	5716	0.01588141731917858
0	5626	-0.01621621660888195
0	5620	-0.0010797451250255108
0	5528	-0.016540613025426865
0	5364	-0.029466018080711365
0	5316	-0.008629368618130684
0	5194	-0.021933766081929207
0	5266	0.012956320308148861
0	5218	-0.008690299466252327
0	5234	0.0029144606087356806
0	5338	0.018951358273625374
0	5338	0.0
0	5298	-0.007261109538376331
0	5358	0.01090182363986969
0	5328	-0.005457786843180656
0	5400	0.013116505928337574
0	5390	-0.0018240186618641019
0	5382	-0.0014608493074774742
0	5436	0.009871908463537693
0	5408	-0.0051244511269032955
0	5484	0.01392077375203371
0	5446	-0.006965149659663439
0	5422	-0.004402377177029848
0	5456	0.006241967901587486
0	5410	-0.008453086018562317
0	5506	0.017655279487371445
0	5434	-0.013251371681690216
0	5514	0.014738031663000584
0	5482	-0.005899995099753141
0	5462	-0.0036913990043103695
0	5510	0.008868414908647537
0	5410	-0.018499333411455154
0	5474	0.01185536477714777
0	5458	-0.002966515487059951
0	5488	0.005564623512327671
0	5566	0.01445693802088499
0	5508	-0.010733452625572681
0	5498	-0.0018470176728442311
0	5412	-0.015861695632338524
0	5446	0.0062634325586259365
0	5436	-0.0018397910753265023
0	5436	0.0
0	5498	0.01139301061630249
0	5398	-0.018353337422013283
0	5412	0.0025688388850539923
0	5418	0.001100365538150072
0	6174	0.13863080739974976
0	6648	0.08650476485490799
1	5574	-0.19450649619102478
0	4570	-0.18167780339717865
0	4920	0.06365565210580826
0	5392	0.08613872528076172
0	5438	0.008397634141147137
0	5526	0.016063475981354713
0	5496	-0.005473853088915348
0	5564	0.01240091398358345
0	5516	-0.008750501088798046
0	5522	0.0010932679288089275
0	5584	0.01129655260592699
0	5524	-0.01092537958174944
0	5594	0.012741480953991413
0	5560	-0.006185567006468773
0	5568	0.0014541049022227526
0	5644	0.013806133531033993
0	5586	-0.010524406097829342
0	5684	0.01777208223938942
0	5710	0.004711681045591831
0	5656	-0.00977387372404337
0	5720	0.011572818271815777
0	5680	-0.007219608407467604
0	5696	0.0028837835416197777
0	5658	-0.006838304456323385
0	5492	-0.029832862317562103
0	5382	-0.01976947672665119
0	5268	-0.020490329712629318
0	5248	-0.0035978988744318485
0	5272	0.004321884363889694
0	5236	-0.006518117617815733
0	5310	0.013513513840734959
0	5284	-0.004755633417516947
0	5348	0.011655435897409916
0	5338	-0.0018164424691349268
0	5348	0.0018170365365222096
0	5422	0.013453403487801552
0	5366	-0.010187375359237194
0	5434	0.012380143627524376
0	5402	-0.005830549634993076
0	5434	0.005834589712321758
0	5462	0.005107997450977564
0	5434	-0.005111790262162685
0	5478	0.00803721509873867
0	5434	-0.00804289523512125
0	5486	0.009512542746961117
0	5480	-0.0010981502709910274
0	5460	-0.0036641668993979692
0	5518	0.010634266771376133
0	5450	-0.012480422854423523
0	5522	0.013235618360340595
0	5474	-0.008830997161567211
0	5502	0.005159197840839624
0	5492	-0.001844587386585772
0	5454	-0.007018235046416521
0	5538	0.015533502213656902
0	5452	-0.01589883863925934
0	5488	0.006652458570897579
0	5502	0.0025835661217570305
0	5512	0.0018425254384055734
0	5572	0.011038880795240402
0	5462	-0.020196333527565002
0	5482	0.003668647725135088
0	5494	0.002198526868596673
0	5440	-0.00988455768674612
0	5518	0.014268814586102962
0	5448	-0.012792086228728294
0	5450	0.00036543028545565903
0	5346	-0.018992658704519272
0	5442	0.017541080713272095
0	6298	0.1563698798418045
0	6614	0.057423222810029984
1	5642	-0.17540693283081055
0	4594	-0.18888553977012634
0	4884	0.052547018975019455
0	5358	0.08617346733808517
0	5498	0.02547183632850647
0	5490	-0.0014553745277225971
0	5522	0.005820439197123051
0	5524	0.0003637686313595623
0	5526	0.0003636055043898523
0	5572	0.008362723514437675
0	5530	-0.007630998734384775
0	5572	0.007629705127328634
0	5536	-0.0065365806221961975
0	5602	0.0119777861982584
0	5618	0.0029025820549577475
0	5590	-0.005074424669146538
0	5692	0.018474021926522255
0	5652	-0.007236413657665253
0	5722	0.012653041630983353
0	5708	-0.0025283233262598515
0	5660	-0.00865571852773428
0	5760	0.018013473600149155
0	5686	-0.013308714143931866
0	5710	0.00430998345836997
0	5578	-0.02367769554257393
0	5352	-0.04050759971141815
0	5312	-0.007173687219619751
0	5246	-0.01183899026364088
0	5224	-0.003950960468500853
0	5288	0.01156807690858841
0	5270	-0.003279724158346653
0	5324	0.009861452504992485
0	5346	0.003999854438006878
0	5336	-0.00181303930003196
0	5396	0.010879682376980782
0	5398	0.00036287980037741363
0	5384	-0.002541573019698262
0	5452	0.012355100363492966
0	5402	-0.009088595397770405
0	5434	0.005821074824780226
0	5450	0.0029129749163985252
0	5448	-0.0003642987285275012
0	5484	0.006562317721545696
0	5422	-0.011305341497063637
0	5466	0.008031932637095451
0	5470	0.0007308516651391983
0	5440	-0.00548539636656642
0	5500	0.010987670160830021
0	5430	-0.012830852530896664
0	5500	0.012853785417973995
0	5452	-0.00882526021450758
0	5462	0.0018409425392746925
0	5496	0.006270671263337135
0	5430	-0.012186715379357338
0	5506	0.014057413674890995
0	5468	-0.007031828165054321
0	5496	0.005177642218768597
0	5518	0.004063538741320372
0	5470	-0.00885108020156622
0	5494	0.004418858792632818
0	5436	-0.010665424168109894
0	5494	0.01065458357334137
0	5566	0.013212624937295914
0	5554	-0.0021991448011249304
0	5596	0.007686770521104336
0	5494	-0.018645120784640312
0	5492	-0.0003653769090306014
0	5514	0.004016504157334566
0	5466	-0.008759976364672184
0	5534	0.012405136600136757
0	5456	-0.014220775105059147
0	5488	0.005833951290696859
0	5378	-0.020049333572387695
0	5390	0.00218860968016088
0	6132	0.13535535335540771
0	6640	0.09229539334774017
1	5526	-0.200971782207489
0	4618	-0.16372357308864594
0	4928	0.05619471147656441
0	5364	0.07927561551332474
0	5476	0.020381176844239235
0	5474	-0.00036389660090208054
0	5554	0.014554804190993309
0	5538	-0.002909937407821417
0	5506	-0.005816067103296518
0	5564	0.010541621595621109
0	5522	-0.007629150524735451
0	5594	0.013076485134661198
0	5546	-0.008713647723197937
0	5576	0.005443526431918144
0	5564	-0.0021763311233371496
0	5570	0.0010873242281377316
0	5658	0.0159401036798954
0	5640	-0.003258665557950735
0	5658	0.003256975207477808
0	5694	0.006511515937745571
0	5672	-0.003974467050284147
0	5734	0.011188643053174019
0	5700	-0.006127598229795694
0	5668	-0.005759055260568857
0	5608	-0.010789556428790092
0	5420	-0.03377649933099747
0	5330	-0.016176188364624977
0	5202	-0.023012753576040268
0	5230	0.00503971753641963
0	5218	-0.0021716314367949963
0	5210	-0.001460280385799706
0	5322	0.020483307540416718
0	5292	-0.0054631540551781654
0	5322	0.0054511092603206635
0	5374	0.009450993500649929
0	5342	-0.005819592624902725
0	5392	0.009100395254790783
0	5344	-0.008744974620640278
0	5418	0.013497738167643547
0	5408	-0.0018249950371682644
0	5384	-0.004384148865938187
0	5456	0.013163507916033268
0	5394	-0.011344783008098602
0	5458	0.011721611954271793
0	5446	-0.002199386479333043
0	5442	-0.0007336577982641757
0	5484	0.007709439843893051
0	5440	-0.008085163310170174
0	5474	0.006255289539694786
0	5442	-0.0058939820155501366
0	5464	0.004058391787111759
0	5482	0.0033247547689825296
0	5442	-0.0073998249135911465
0	5474	0.00592929357662797
0	5480	0.0011130761122331023
0	5458	-0.004084512125700712
0	5502	0.008167103864252567
0	5468	-0.006304234731942415
0	5494	0.004812972620129585
0	5514	0.0036962656304240227
0	5430	-0.015496058389544487
0	5506	0.014001301489770412
0	5482	-0.004416473209857941
0	5590	0.019850995391607285
0	5576	-0.0025690586771816015
0	5532	-0.008064220659434795
0	5554	0.004027435556054115
0	5496	-0.010607298463582993
0	5480	-0.0029234422836452723
0	5502	0.004018215928226709
0	5484	-0.0032857507467269897
0	5504	0.003648614278063178
0	5420	-0.015319707803428173
0	5330	-0.016411378979682922
0	5878	0.10000486671924591
0	6544	0.12122020870447159
0	6072	-0.0853392481803894
1	4886	-0.21367572247982025
0	4862	-0.004338394850492477
0	5248	0.07003410905599594
0	5546	0.054131295531988144
0	5538	-0.001452467986382544
0	5560	0.00399293377995491
0	5602	0.00761743588373065
0	5540	-0.011236091144382954
0	5618	0.014130606316030025
0	5572	-0.00832539051771164
0	5614	0.007598234340548515
0	5596	-0.00325352163054049
0	5582	-0.002528962679207325
0	5656	0.01336190290749073
0	5572	-0.015146962366998196
0	5662	0.016222450882196426
0	5678	0.0028808757197111845
0	5634	-0.007918226532638073
0	5756	0.02194744534790516
0	5682	-0.013294527307152748
0	5724	0.007539763115346432
0	5710	-0.002509830053895712
0	5656	-0.00966748595237732
0	5644	-0.0021463576704263687
0	5410	-0.041814085096120834
0	5306	-0.018594449386000633
0	5260	-0.008230060338973999
0	5176	-0.015035082586109638
0	5182	0.001078451401554048
0	5248	0.01196056604385376
0	5240	-0.001457017962820828
0	5328	0.015992827713489532
0	5308	-0.0036245016381144524
0	5312	0.0007246377062983811
0	5366	0.009796450845897198
0	5336	-0.005448139738291502
0	5410	0.013456991873681545
0	5382	-0.0050977678038179874
0	5426	0.008018466643989086
0	5438	0.002189408289268613
0	5396	-0.007669178303331137
0	5480	0.01535873580724001
0	5408	-0.013173944316804409
0	5458	0.009158291853964329
0	5480	0.004034525714814663
0	5398	-0.015046239830553532
0	5472	0.013600273989140987
0	5438	-0.006256670691072941
0	5480	0.007738132029771805
0	5454	-0.004798405338078737
0	5432	-0.004065892193466425
0	5510	0.014441413804888725
0	5450	-0.011122507974505424
0	5452	0.0003712227917276323
0	5504	0.009663271717727184
0	5464	-0.007428960409015417
0	5524	0.011132551357150078
0	5518	-0.0011114404769614339
0	5532	0.0025878960732370615
0	5476	-0.010329307988286018
0	5418	-0.010683235712349415
0	5468	0.009199632331728935
0	5426	-0.00772106135264039
0	5476	0.009185098111629486
0	5460	-0.002936282427981496
0	5460	0.0
0	5440	-0.0036654651630669832
0	5318	-0.02235523983836174
0	5578	0.0476609468460083
0	6160	0.1065881997346878
0	5930	-0.04193763807415962
1	5046	-0.16066496074199677
0	4722	-0.05904148891568184
0	5028	0.055994730442762375
0	5542	0.09430384635925293
0	5580	0.0069692377001047134
0	5576	-0.0007327886414714158
0	5642	0.012083337642252445
0	5598	-0.008045542985200882
0	5650	0.009501535445451736
0	5578	-0.013140284456312656
0	5612	0.00619962764903903
0	5612	0.0
0	5608	-0.000728199549484998
0	5658	0.00909388530999422
0	5590	-0.012356147170066833
0	5670	0.014525559730827808
0	5636	-0.006167912390083075
0	5654	0.0032630369532853365
0	5708	0.009781899861991405
0	5664	-0.00795928668230772
0	5752	0.015894996002316475
0	5678	-0.013343431986868382
0	5706	0.005041230004280806
0	5640	-0.01186651922762394
0	5458	-0.03268756344914436
0	5376	-0.014727541245520115
0	5180	-0.03521590679883957
0	5196	0.0028771457727998495
0	5152	-0.007930309511721134
0	5160	0.0014506594743579626
0	5240	0.014574426226317883
0	5210	-0.005458978936076164
0	5290	0.014514314942061901
0	5256	-0.006158825475722551
0	5300	0.007984031923115253
0	5332	0.00581641960889101
0	5320	-0.002184386597946286
0	5434	0.020792296156287193
0	5362	-0.013145082630217075
0	5398	0.006584080867469311
0	5464	0.012084076181054115
0	5410	-0.009895910508930683
0	5470	0.011009039357304573
0	5412	-0.010651061311364174
0	5448	0.006620973814278841
0	5480	0.005890437867492437
0	5422	-0.010688879527151585
0	5490	0.012548285536468029
0	5424	-0.012191517278552055
0	5470	0.008512003347277641
0	5478	0.0014821219956502318
0	5420	-0.01076359674334526
0	5496	0.014126569963991642
0	5436	-0.01116708479821682
0	5450	0.002608954906463623
0	5514	0.011927243322134018
0	5540	0.004841292276978493
0	5564	0.00445892196148634
0	5514	-0.009268298745155334
0	5474	-0.007398091722279787
0	5500	0.004799468442797661
0	5440	-0.011058005504310131
0	5464	0.004416961222887039
0	5458	-0.0011030628811568022
0	5436	-0.004039563238620758
0	5458	0.004036203492432833
0	5290	-0.030798185616731644
0	5562	0.04987287148833275
0	6248	0.12568399310112
0	6032	-0.03936099261045456
1	5106	-0.1680946946144104
0	4752	-0.0644003227353096
0	4984	0.04237494617700577
0	5450	0.08536779135465622
0	5514	0.011721611954271793
0	5536	0.0040276809595525265
0	5598	0.011346859857439995
0	5566	-0.005850162822753191
0	5614	0.008771182037889957
0	5582	-0.005840695463120937
0	5568	-0.00255356403067708
0	5632	0.01166705135256052
0	5530	-0.018570439890027046
0	5614	0.015290148556232452
0	5630	0.002909267321228981
0	5618	-0.002179572591558099
0	5664	0.008349770680069923
0	5656	-0.001451045391149819
0	5702	0.008338872343301773
0	5744	0.0076051135547459126
0	5694	-0.009038975462317467
0	5756	0.011195242404937744
0	5698	-0.010453087277710438
0	5626	-0.012958030216395855
0	5484	-0.025530384853482246
0	5266	-0.03918326273560524
0	5244	-0.003958827815949917
0	5152	-0.016559669747948647
0	5202	0.009022013284265995
0	5248	0.008352803066372871
0	5226	-0.004013866186141968
0	5312	0.015679124742746353
0	5308	-0.0007267882465384901
0	5304	-0.0007253647781908512
0	5378	0.01343110203742981
0	5332	-0.008355938829481602
0	5380	0.008730024099349976
0	5394	0.0025496266316622496
0	5402	0.0014584523160010576
0	5454	0.009492168202996254
0	5366	-0.016076192259788513
0	5428	0.011340356431901455
0	5414	-0.0025639147497713566
0	5398	-0.0029322647023946047
0	5446	0.008808416314423084
0	5406	-0.007348618004471064
0	5458	0.009565622545778751
0	5400	-0.010682842694222927
0	5430	0.005534306634217501
0	5466	0.006652294658124447
0	5406	-0.011106175370514393
0	5476	0.012980270199477673
0	5430	-0.0085446797311306
0	5504	0.013768637552857399
0	5484	-0.0037240709643810987
0	5476	-0.0014896284556016326
0	5510	0.006322679575532675
0	5476	-0.0063122715801000595
0	5500	0.004446804989129305
0	5456	-0.00813749898225069
0	5470	0.002585888374596834
0	5542	0.013278906233608723
0	5508	-0.0062617408111691475
0	5610	0.01876218616962433
0	5524	-0.015789473429322243
0	5520	-0.0007337385322898626
0	5506	-0.0025651361793279648
0	5450	-0.010252654552459717
0	5516	0.012079358100891113
0	5458	-0.010607816278934479
0	5492	0.006218223366886377
0	5432	-0.010964912362396717
0	5338	-0.017177945002913475
0	5558	0.04022232070565224
0	6324	0.13991038501262665
0	6430	0.01925802044570446
1	5274	-0.20872704684734344
0	4632	-0.11604785919189453
0	5062	0.07808811217546463
0	5446	0.06989018619060516
0	5438	-0.0014562223805114627
0	5528	0.01637932099401951
0	5512	-0.0029109609313309193
0	5558	0.008364852517843246
0	5550	-0.0014542810386046767
0	5524	-0.004724523518234491
0	5594	0.012716175056993961
0	5548	-0.008352095261216164
0	5586	0.006896551698446274
0	5592	0.0010883630020543933
0	5564	-0.0050748540088534355
0	5638	0.013404502533376217
0	5576	-0.01122429221868515
0	5650	0.013391241431236267
0	5650	0.0
0	5646	-0.0007231268100440502
0	5740	0.01698058657348156
0	5694	-0.008297956548631191
0	5716	0.003962773829698563
0	5668	-0.008635682053864002
0	5534	-0.02407762221992016
0	5466	-0.012215422466397285
0	5290	-0.031609952449798584
0	5248	-0.007545452564954758
0	5204	-0.007919461466372013
0	5238	0.006160982884466648
0	5260	0.0040154289454221725
0	5262	0.0003650700964499265
0	5368	0.01927483081817627
0	5324	-0.007986060343682766
0	5340	0.0029061671812087297
0	5370	0.005452298559248447
0	5356	-0.0025468438398092985
0	5412	0.010197021067142487
0	5362	-0.009112558327615261
0	5446	0.015326603315770626
0	5406	-0.0073018460534513
0	5446	0.007310208864510059
0	5496	0.00914344284683466
0	5434	-0.011344091966748238
0	5476	0.007692120037972927
0	5458	-0.003298394614830613
0	5504	0.008438508957624435
0	5528	0.004404639825224876
0	5490	-0.006979221478104591
0	5542	0.009559878148138523
0	5514	-0.005150909535586834
0	5512	-0.0003684326948132366
0	5556	0.008114587515592575
0	5518	-0.007014953065663576
0	5530	0.002217294881120324
0	5570	0.0073911650106310844
0	5514	-0.010341006331145763
0	5598	0.01549015287309885
0	5518	-0.01472085528075695
0	5556	0.006978965364396572
0	5582	0.004765803460031748
0	5530	-0.009512891061604023
0	5602	0.013150203973054886
0	5562	-0.007295276504009962
0	5574	0.0021854208316653967
0	5568	-0.0010911603458225727
0	5552	-0.002906272653490305
0	5644	0.016691260039806366
0	5628	-0.0028987608384341
0	5676	0.008682334795594215
0	5628	-0.00867031142115593
0	5582	-0.008297956548631191
0	5600	0.0032443732488900423
0	5552	-0.008646260015666485
0	5570	0.003240051679313183
0	5560	-0.00179901416413486
0	5542	-0.0032362460624426603
0	5514	-0.005033014342188835
0	5422	-0.016538433730602264
0	5792	0.06654038280248642
0	6708	0.1644858866930008
0	6498	-0.037442054599523544
1	5278	-0.21625326573848724
0	4794	-0.08593343198299408
0	5282	0.08701647818088531
0	5554	0.04857258498668671
0	5580	0.004643409978598356
0	5648	0.012139533646404743
0	5658	0.001784694381058216
0	5642	-0.0028531348798424006
0	5682	0.007129192817956209
0	5640	-0.0074812076054513454
0	5672	0.005696247331798077
0	5642	-0.00533801456913352
0	5656	0.0024898923002183437
0	5732	0.013509989716112614
0	5684	-0.008524342440068722
0	5738	0.00958239659667015
0	5734	-0.0007094127358868718
0	5732	-0.00035448421840555966
0	5784	0.009213541634380817
0	5776	-0.0014161630533635616
0	5834	0.010255442932248116
0	5844	0.0017657445278018713
0	5796	-0.008461032062768936
0	5794	-0.00035207546898163855
0	5636	-0.027775824069976807
0	5552	-0.014758764766156673
0	5384	-0.02951096184551716
0	5346	-0.006676584016531706
0	5374	0.004932472016662359
0	5314	-0.010653030127286911
0	5352	0.006794530898332596
0	5408	0.010008578188717365
0	5340	-0.012108981609344482
0	5428	0.015665052458643913
0	5386	-0.007482096552848816
0	5418	0.005707219708710909
0	5422	0.0007143792463466525
0	5412	-0.0017884608823806047
0	5482	0.01253641489893198
0	5440	-0.007530840113759041
0	5502	0.011130260303616524
0	5488	-0.0025158438365906477
0	5448	-0.007194762118160725
0	5504	0.010085244663059711
0	5482	-0.003967490512877703
0	5528	0.008305747993290424
0	5502	-0.00470049399882555
0	5472	-0.005431240424513817
0	5524	0.009428944438695908
0	5462	-0.011259897612035275
0	5514	0.00946177076548338
0	5462	-0.009480170905590057
0	5484	0.004020174033939838
0	5534	0.009154155850410461
0	5480	-0.009902199730277061
0	5492	0.0022025892976671457
0	5506	0.0025706312153488398
0	5474	-0.005871343892067671
0	5476	0.00036667194217443466
0	5454	-0.004030879121273756
0	5490	0.00659034913405776
0	5486	-0.0007316448609344661
0	5456	-0.005484728142619133
0	5514	0.010596316307783127
0	5434	-0.014607958495616913
0	5498	0.01168295368552208
0	5420	-0.014231671579182148
0	5422	0.0003649191348813474
0	5484	0.011311804875731468
0	5458	-0.004743602126836777
0	5520	0.011310429312288761
0	5458	-0.011309190653264523
0	5386	-0.01313565019518137
0	5442	0.010220469906926155
0	5388	-0.009859171696007252
0	5430	0.007672634441405535
0	5424	-0.0010967451380565763
0	5374	-0.009143888019025326
0	5342	-0.005855586379766464
0	5300	-0.007693998981267214
0	6306	0.18447206914424896
0	6408	0.018613819032907486
1	4994	-0.2565622329711914
0	4526	-0.08516833186149597
0	5102	0.10546746104955673
0	5328	0.0414770245552063
0	5390	0.0113900788128376
0	5450	0.011030493304133415
0	5404	-0.008457955904304981
0	5478	0.013612283393740654
0	5440	-0.006989062298089266
0	5456	0.0029436657205224037
0	5486	0.005520388949662447
0	5442	-0.008095080964267254
0	5540	0.018037917092442513
0	5470	-0.012875852175056934
0	5514	0.008094782009720802
0	5530	0.00294186151586473
0	5544	0.002572425873950124
0	5596	0.00955121498554945
0	5584	-0.0022022658959031105
0	5600	0.0029352051205933094
0	5648	0.00879797711968422
0	5574	-0.01354187075048685
0	5638	0.011702464893460274
0	5574	-0.01168466079980135
0	5522	-0.009485473856329918
0	5394	-0.02333495393395424
0	5250	-0.0262486319988966
0	5204	-0.0083896704018116
0	5110	-0.017154119908809662
0	5176	0.01213265024125576
0	5152	-0.004445432685315609
0	5128	-0.0044410997070372105
0	5246	0.02175462804734707
0	5250	0.0007367930375039577
0	5242	-0.001474292017519474
0	5300	0.010698343627154827
0	5278	-0.00406173849478364
0	5358	0.014781419187784195
0	5290	-0.012573499232530594
0	5352	0.011474681086838245
0	5374	0.004074275027960539
0	5324	-0.009266123175621033
0	5394	0.012982035055756569
0	5332	-0.01150876097381115
0	5390	0.010775461792945862
0	5414	0.004462238401174545
0	5360	-0.01004725880920887
0	5416	0.010431284084916115
0	5388	-0.005221477709710598
0	5406	0.003360759001225233
0	5438	0.005981904454529285
0	5402	-0.006738460157066584
0	5448	0.008619504980742931
0	5410	-0.0071289208717644215
0	5376	-0.006385056767612696
0	5434	0.010902118869125843
0	5374	-0.01127522811293602
0	5462	0.016524167731404305
0	5420	-0.007873819209635258
0	5442	0.0041164071299135685
0	5462	0.0037359900306910276
0	5418	-0.008203343488276005
0	5462	0.008188585750758648
0	5408	-0.010036179795861244
0	5430	0.004084815736860037
0	5462	0.005934644490480423
0	5462	0.0
0	5566	0.019246427342295647
0	5452	-0.02107001282274723
0	5466	0.0025849654339253902
0	5430	-0.006642393302172422
0	5408	-0.004057842772454023
0	5466	0.010692426934838295
0	5392	-0.013636029325425625
0	5436	0.008104922249913216
0	5348	-0.01620526611804962
0	5246	-0.018790990114212036
0	5678	0.07964111864566803
0	6524	0.15571315586566925
0	6216	-0.05629752576351166
1	4888	-0.24154531955718994
0	4890	0.00036499014822766185
0	5274	0.07029705494642258
0	5418	0.026389414444565773
0	5430	0.002199010457843542
0	5492	0.0113578075543046
0	5476	-0.0029300092719495296
0	5470	-0.001098069828003645
0	5538	0.01244418416172266
0	5476	-0.0113380067050457
0	5556	0.014626653864979744
0	5524	-0.005847312044352293
0	5490	-0.006208760663866997
0	5584	0.017162470147013664
0	5538	-0.0083896704018116
0	5578	0.007290578447282314
0	5600	0.00400699395686388
0	5588	-0.0021838033571839333
0	5644	0.0101897232234478
0	5604	-0.0072699072770774364
0	5698	0.01707001030445099
0	5638	-0.010878104716539383
0	5610	-0.005069402512162924
0	5602	-0.00144714314956218
0	5456	-0.026376962661743164
0	5374	-0.01481267437338829
0	5244	-0.023479832336306572
0	5164	-0.014449301175773144
0	5196	0.005797661375254393
0	5128	-0.01241963729262352
0	5226	0.018018240109086037
0	5206	-0.003669589990749955
0	5250	0.008057525381445885
0	5298	0.00879131630063057
0	5262	-0.006598321255296469
0	5354	0.016879700124263763
0	5304	-0.009181499481201172
0	5356	0.009558823890984058
0	5408	0.00956550519913435
0	5348	-0.011045926250517368
0	5450	0.018792835995554924
0	5428	-0.004055997356772423
0	5388	-0.007378893904387951
0	5454	0.012182815931737423
0	5414	-0.0073894355446100235
0	5428	0.0025882788468152285
0	5420	-0.0014803848462179303
0	5420	0.0
0	5456	0.0066760629415512085
0	5410	-0.008540449663996696
0	5464	0.010037796571850777
0	5448	-0.0029784804210066795
0	5402	-0.008573239669203758
0	5494	0.017168663442134857
0	5440	-0.010084033943712711
0	5438	-0.0003735199279617518
0	5484	0.00858753640204668
0	5422	-0.011557245627045631
0	5504	0.015260923653841019
0	5452	-0.009659203700721264
0	5456	0.0007415280560962856
0	5456	0.0
0	5464	0.0014786701649427414
0	5570	0.019566582515835762
0	5518	-0.00958266295492649
0	5508	-0.0018399263499304652
0	5444	-0.01176441740244627
0	5412	-0.005877167452126741
0	5472	0.011015912517905235
0	5426	-0.008442225866019726
0	5490	0.011740103363990784
0	5406	-0.01540511753410101
0	5320	-0.01577402837574482
0	5368	0.008807769976556301
0	5938	0.10464731603860855
0	6644	0.1292014867067337
1	5806	-0.1522289365530014
0	4502	-0.23632892966270447
0	4830	0.05977620556950569
0	5272	0.08085957914590836
0	5436	0.030027465894818306
0	5532	0.017580056563019753
0	5506	-0.004758825525641441
0	5526	0.003658313537016511
0	5532	0.0010972799500450492
0	5494	-0.006945544388145208
0	5570	0.013886351138353348
0	5508	-0.01132240891456604
0	5548	0.0073009575717151165
0	5526	-0.004014451988041401
0	5542	0.0029182881116867065
0	5592	0.009114883840084076
0	5576	-0.0029143542051315308
0	5628	0.009465215727686882
0	5634	0.0010917560430243611
0	5638	0.0007273256196640432
0	5696	0.010537918657064438
0	5620	-0.013787264935672283
0	5662	0.007609706837683916
0	5636	-0.004705371335148811
0	5584	-0.009398835711181164
0	5546	-0.006864492315798998
0	5326	-0.039708323776721954
0	5284	-0.0075804064981639385
0	5168	-0.02094694785773754
0	5176	0.0014513437636196613
0	5252	0.013911260291934013
0	5212	-0.007346549071371555
0	5316	0.01901835948228836
0	5260	-0.010210406966507435
0	5314	0.009846467524766922
0	5374	0.010948638431727886
0	5342	-0.00584489107131958
0	5422	0.014626833610236645
0	5382	-0.007318055257201195
0	5400	0.003296139882877469
0	5458	0.010626993142068386
0	5392	-0.012101061642169952
0	5488	0.017614031210541725
0	5404	-0.015417935326695442
0	5478	0.013592613860964775
0	5482	0.0007350238738581538
0	5434	-0.008826233446598053
0	5472	0.006993521470576525
0	5434	-0.0070002214051783085
0	5490	0.010328800417482853
0	5482	-0.0014768867986276746
0	5454	-0.005175919737666845
0	5496	0.007771829143166542
0	5420	-0.01407772395759821
0	5492	0.01335460226982832
0	5450	-0.007794617675244808
0	5484	0.006313678342849016
0	5498	0.0025972099974751472
0	5476	-0.004075936041772366
0	5518	0.007766559720039368
0	5450	-0.012547977268695831
0	5500	0.00921523105353117
0	5544	0.008095080964267254
0	5554	0.0018372221384197474
0	5560	0.001100352150388062
0	5472	-0.016114264726638794
0	5518	0.008418329991400242
0	5488	-0.005484327208250761
0	5474	-0.0025583235546946526
0	5500	0.004748511593788862
0	5456	-0.008031053468585014
0	5434	-0.0040155756287276745
0	5288	-0.026642009615898132
0	5636	0.063580222427845
0	6594	0.17478136718273163
0	6136	-0.08299607038497925
1	4972	-0.21010324358940125
0	4718	-0.04597507044672966
0	5238	0.09455233067274094
0	5418	0.03276858106255531
0	5546	0.023312287405133247
0	5498	-0.008738712407648563
0	5578	0.014560633338987827
0	5546	-0.005821357015520334
0	5528	-0.003272013273090124
0	5564	0.006542599759995937
0	5502	-0.011260033585131168
0	5578	0.013801119290292263
0	5532	-0.008349264971911907
0	5580	0.008709326386451721
0	5574	-0.0010882577626034617
0	5580	0.0010874425061047077
0	5644	0.011593782342970371
0	5588	-0.010138438083231449
0	5682	0.017014602199196815
0	5652	-0.005426197778433561
0	5694	0.0075884414836764336
0	5704	0.0018048586789518595
0	5666	-0.006849562283605337
0	5684	0.00324079068377614
0	5588	-0.01726515218615532
0	5520	-0.012219812721014023
0	5360	-0.028737695887684822
0	5254	-0.01903052069246769
0	5264	0.0017994458321481943
0	5202	-0.011246281675994396
0	5272	0.012769528664648533
0	5270	-0.0003641793446149677
0	5260	-0.0018148161470890045
0	5326	0.011976193636655807
0	5284	-0.007625456899404526
0	5370	0.01563882827758789
0	5334	-0.006551569327712059
0	5382	0.008748374879360199
0	5400	0.0032839125487953424
0	5398	-0.0003651634033303708
0	5460	0.011331513524055481
0	5410	-0.00914065632969141
0	5478	0.012444032356142998
0	5466	-0.002196729416027665
0	5422	-0.008060281164944172
0	5480	0.010634787380695343
0	5426	-0.009907408617436886
0	5484	0.010655496269464493
0	5458	-0.004779646173119545
0	5442	-0.0029453635215759277
0	5484	0.007741555105894804
0	5452	-0.005905947647988796
0	5482	0.005545423366129398
0	5470	-0.0022206869907677174
0	5450	-0.0037060370668768883
0	5522	0.013353115878999233
0	5450	-0.013352950103580952
0	5502	0.009638434275984764
0	5466	-0.006662553641945124
0	5472	0.0011090436019003391
0	5506	0.0062741427682340145
0	5488	-0.003316831076517701
0	5598	0.020242419093847275
0	5530	-0.012487604282796383
0	5520	-0.0018341218819841743
0	5498	-0.004029254894703627
0	5452	-0.00841822661459446
0	5528	0.01389837171882391
0	5472	-0.010231799446046352
0	5480	0.0014610448852181435
0	5456	-0.004380947910249233
0	5346	-0.020079832524061203
0	5436	0.016435354948043823
0	6228	0.1446681022644043
0	6544	0.05745454505085945
1	5268	-0.23043306171894073
0	4594	-0.12187330424785614
0	5046	0.08214298635721207
0	5462	0.07580175250768661
0	5466	0.0007288452470675111
0	5566	0.018218476325273514
0	5516	-0.009104704484343529
0	5558	0.007644982077181339
0	5582	0.004366547334939241
0	5572	-0.001818159711547196
0	5626	0.009810809046030045
0	5544	-0.014888517558574677
0	5590	0.0083473464474082
0	5570	-0.0036273503210395575
0	5576	0.0010875213192775846
0	5624	0.008694706484675407
0	5606	-0.0032581938430666924
0	5640	0.0061499872244894505
0	5672	0.005786757916212082
0	5636	-0.006504535209387541
0	5676	0.007222215179353952
0	5672	-0.000721448683179915
0	5658	-0.002521734917536378
0	5680	0.003959635738283396
0	5592	-0.015818802639842033
0	5538	-0.009700482711195946
0	5334	-0.03662828356027603
0	5262	-0.012928557582199574
0	5222	-0.00719002028927207
0	5196	-0.004701854195445776
0	5260	0.011668612249195576
0	5210	-0.009116546250879765
0	5298	0.01598527282476425
0	5264	-0.006166718900203705
0	5334	0.012711402960121632
0	5356	0.003998206928372383
0	5346	-0.0018196816090494394
0	5396	0.00910780020058155
0	5382	-0.0025526948738843203
0	5446	0.011683664284646511
0	5382	-0.011692630127072334
0	5430	0.00878252275288105
0	5472	0.007690053898841143
0	5426	-0.008428510278463364
0	5478	0.009536268189549446
0	5446	-0.005871990695595741
0	5472	0.004776192829012871
0	5466	-0.001103103393688798
0	5434	-0.00588949816301465
0	5488	0.009953060187399387
0	5428	-0.011069022119045258
0	5476	0.008868742734193802
0	5488	0.002219865331426263
0	5436	-0.009629510343074799
0	5472	0.006676640827208757
0	5452	-0.003711998462677002
0	5500	0.008913538418710232
0	5510	0.001855081063695252
0	5564	0.010002098977565765
0	5524	-0.007393350824713707
0	5454	-0.012912269681692123
0	5478	0.004421789664775133
0	5470	-0.0014715079450979829
0	5472	0.0003674894105643034
0	5482	0.0018351093167439103
0	5432	-0.009167246520519257
0	5414	-0.0032986768055707216
0	5292	-0.022348415106534958
0	5708	0.07625285536050797
0	6614	0.16573978960514069
0	6016	-0.10862194001674652
1	4938	-0.1950613409280777
0	4802	-0.024682095274329185
0	5258	0.08309441804885864
0	5470	0.03867107629776001
0	5540	0.012769373133778572
0	5532	-0.0014585232129320502
0	5598	0.012028430588543415
0	5536	-0.011290381662547588
0	5602	0.01201135665178299
0	5558	-0.008002037182450294
0	5566	0.0014537702081725001
0	5620	0.009807601571083069
0	5566	-0.009799770079553127
0	5622	0.010154739022254944
0	5578	-0.007971496321260929
0	5626	0.00868956558406353
0	5630	0.0007235802477225661
0	5612	-0.0032537567894905806
0	5690	0.014095536433160305
0	5638	-0.009387636557221413
0	5692	0.009737917222082615
0	5666	-0.004682603292167187
0	5664	-0.0003597769245970994
0	5662	-0.00035936321364715695
0	5560	-0.01830778643488884
0	5486	-0.013271955773234367
0	5308	-0.031910695135593414
0	5286	-0.003943641670048237
0	5224	-0.011141994968056679
0	5180	-0.007973614148795605
0	5294	0.020763766020536423
0	5248	-0.008360291831195354
0	5298	0.00906278658658266
0	5350	0.009423021227121353
0	5316	-0.006165675353258848
0	5396	0.01452714204788208
0	5382	-0.0025443444028496742
0	5396	0.0025476778391748667
0	5440	0.008013793267309666
0	5416	-0.004375463351607323
0	5472	0.010218232870101929
0	5416	-0.010224077850580215
0	5418	0.00036559952422976494
0	5486	0.012441604398190975
0	5434	-0.00952206552028656
0	5500	0.012096330523490906
0	5440	-0.01100513618439436
0	5460	0.0036726449616253376
0	5506	0.008454949595034122
0	5428	-0.014352833852171898
0	5482	0.009949392639100552
0	5444	-0.007010466419160366
0	5430	-0.0025863342452794313
0	5484	0.009990256279706955
0	5480	-0.0007408321835100651
0	5582	0.01890055648982525
0	5530	-0.009629867039620876
0	5556	0.004808344412595034
0	5454	-0.018832160159945488
0	5462	0.0014749444089829922
0	5484	0.004049079492688179
0	5446	-0.006985722575336695
0	5510	0.011751169338822365
0	5444	-0.012102688662707806
0	5400	-0.008063825778663158
0	5368	-0.005861593410372734
0	5664	0.0542290061712265
0	6636	0.17777018249034882
0	6230	-0.07369668781757355
1	4990	-0.22401271760463715
0	4694	-0.05361153185367584
0	5112	0.07606546580791473
0	5428	0.057610269635915756
0	5538	0.020052988082170486
0	5518	-0.003644846146926284
0	5582	0.01165755931288004
0	5562	-0.0036411744076758623
0	5544	-0.00327463261783123
0	5598	0.00981889571994543
0	5542	-0.01017688401043415
0	5622	0.014528372325003147
0	5574	-0.008709642104804516
0	5624	0.0090654157102108
0	5608	-0.002897535916417837
0	5562	-0.008324184454977512
0	5658	0.017363624647259712
0	5640	-0.003254188224673271
0	5646	0.0010840108152478933
0	5686	0.007222824264317751
0	5658	-0.005048926454037428
0	5686	0.005042985547333956
0	5668	-0.003237992525100708
0	5634	-0.006108077242970467
0	5574	-0.01077096164226532
0	5378	-0.03515779227018356
0	5314	-0.011481605470180511
0	5218	-0.01722797192633152
0	5198	-0.0035987619776278734
0	5248	0.009075178764760494
0	5240	-0.0014607070479542017
0	5294	0.009844793006777763
0	5250	-0.00799254048615694
0	5312	0.011252813041210175
0	5314	0.00036324889515526593
0	5312	-0.0003637421759776771
0	5398	0.015660472214221954
0	5356	-0.007656688801944256
0	5430	0.013507264666259289
0	5406	-0.0043837749399244785
0	5400	-0.0010972263989970088
0	5442	0.007687238976359367
0	5392	-0.009161535650491714
0	5490	0.01797659508883953
0	5426	-0.011749442666769028
0	5432	0.0011027384316548705
0	5486	0.009932557120919228
0	5420	-0.012152607552707195
0	5478	0.010694003663957119
0	5440	-0.007013658061623573
0	5488	0.008872786536812782
0	5444	-0.008141916245222092
0	5434	-0.001853201654739678
0	5490	0.010392952710390091
0	5480	-0.0018575390568003058
0	5548	0.012638621963560581
0	5490	-0.01076865941286087
0	5448	-0.007789510302245617
0	5500	0.009630462154746056
0	5430	-0.012939957901835442
0	5464	0.006278082262724638
0	5468	0.0007375809946097434
0	5464	-0.0007367930375039577
0	5416	-0.008829913102090359
0	5286	-0.023899110034108162
0	5620	0.06141286343336105
0	6564	0.17324703931808472
0	6250	-0.0572185218334198
1	4992	-0.2280004471540451
0	4778	-0.0388883538544178
0	5224	0.08135716617107391
0	5478	0.0463830940425396
0	5486	0.0014605646720156074
0	5514	0.005109054036438465
0	5570	0.01021661702543497
0	5534	-0.00656207837164402
0	5582	0.008744019083678722
0	5556	-0.004733584355562925
0	5572	0.0029105725698173046
0	5552	-0.003636143170297146
0	5574	0.003997044637799263
0	5616	0.007626749575138092
0	5572	-0.00798161793500185
0	5630	0.010512451641261578
0	5610	-0.0036219200119376183
0	5616	0.0010857239831238985
0	5656	0.0072351922281086445
0	5636	-0.003613978624343872
0	5718	0.01480055321007967
0	5662	-0.010094455443322659
0	5640	-0.003960158210247755
0	5648	0.001438538427464664
0	5526	-0.02191406674683094
0	5446	-0.014364548027515411
0	5292	-0.02764679118990898
0	5256	-0.00646265409886837
0	5236	-0.0035982008557766676
0	5212	-0.004352504387497902
0	5302	0.016424955800175667
0	5276	-0.004736056085675955
0	5304	0.005084991920739412
0	5346	0.007623795419931412
0	5318	-0.005086593329906464
0	5412	0.017093809321522713
0	5372	-0.007278461940586567
0	5418	0.008380294777452946
0	5388	-0.005469262599945068
0	5380	-0.001460191560909152
0	5472	0.016810202971100807
0	5398	-0.013529490679502487
0	5448	0.009150135330855846
0	5460	0.0021977215074002743
0	5434	-0.004766269586980343
0	5510	0.013943931087851524
0	5446	-0.011750881560146809
0	5500	0.009924768470227718
0	5452	-0.008828289806842804
0	5440	-0.0022098361514508724
0	5478	0.007006244268268347
0	5446	-0.005908710416406393
0	5478	0.005916576366871595
0	5542	0.011844978667795658
0	5550	0.0014815912581980228
0	5542	-0.001481371815316379
0	5474	-0.01258420292288065
0	5514	0.007394171319901943
0	5448	-0.01218101754784584
0	5478	0.005529614165425301
0	5484	0.0011041183024644852
0	5442	-0.0077202096581459045
0	5434	-0.0014690220123156905
0	5288	-0.026788335293531418
0	5438	0.027532028034329414
0	6206	0.14086055755615234
0	6654	0.08177172392606735
1	5586	-0.19342920184135437
0	4546	-0.18816718459129333
0	4872	0.05928422883152962
0	5444	0.10434148460626602
0	5462	0.0032840322237461805
0	5564	0.0186022762209177
0	5528	-0.0065608820877969265
0	5542	0.0025504007935523987
0	5566	0.004369250498712063
0	5524	-0.007643590681254864
0	5574	0.00909520871937275
0	5572	-0.0003636451729107648
0	5592	0.003633809043094516
0	5566	-0.004719607066363096
0	5568	0.00036285349051468074
0	5614	0.008339477702975273
0	5594	-0.003622882068157196
0	5604	0.0018108724616467953
0	5656	0.009413468651473522
0	5650	-0.0010854228166863322
0	5726	0.013734112493693829
0	5658	-0.012272743508219719
0	5672	0.002523553092032671
0	5654	-0.00324079068377614
0	5542	-0.020144367590546608
0	5458	-0.015099222771823406
0	5304	-0.027677929028868675
0	5218	-0.015455025248229504
0	5228	0.0017994672525674105
0	5208	-0.0036201714538037777
0	5272	0.011686509475111961
0	5266	-0.0010977082420140505
0	5298	0.00582885043695569
0	5370	0.013081078417599201
0	5338	-0.00581641960889101
0	5388	0.009094987995922565
0	5370	-0.0032776936423033476
0	5410	0.007290755398571491
0	5408	-0.0003648303681984544
0	5410	0.00036518118577077985
0	5444	0.006212390959262848
0	5398	-0.008411658927798271
0	5460	0.011349491775035858
0	5434	-0.004763300530612469
0	5434	0.0
0	5496	0.011377121321856976
0	5432	-0.011752607300877571
0	5478	0.008455570787191391
0	5444	-0.006254598964005709
0	5466	0.004052361473441124
0	5476	0.0018440658459439874
0	5432	-0.008126377128064632
0	5522	0.016645295545458794
0	5502	-0.0037023783661425114
0	5562	0.011117561720311642
0	5536	-0.004817015491425991
0	5444	-0.017036616802215576
0	5476	0.005920663475990295
0	5464	-0.0022167214192450047
0	5462	-0.0003689174773171544
0	5470	0.0014733688440173864
0	5446	-0.004414740018546581
0	5452	0.0011024682316929102
0	5292	-0.02937144972383976
0	5562	0.04958799108862877
0	6626	0.19514580070972443
0	6276	-0.06371049582958221
1	5044	-0.22303487360477448
0	4650	-0.07148559391498566
0	5014	0.066346675157547
0	5446	0.07893101871013641
0	5446	0.0
0	5492	0.008402133360505104
0	5544	0.009496213868260384
0	5508	-0.006569902878254652
0	5560	0.00948558934032917
0	5550	-0.001823442173190415
0	5528	-0.004008697345852852
0	5576	0.008743594400584698
0	5568	-0.0014560986310243607
0	5550	-0.0032741958275437355
0	5594	0.00800000037997961
0	5574	-0.0036327969282865524
0	5650	0.013800282962620258
0	5614	-0.006531125400215387
0	5654	0.0072545250877738
0	5692	0.006886885967105627
0	5636	-0.010133912786841393
0	5726	0.016270941123366356
0	5650	-0.013718245550990105
0	5586	-0.011539154686033726
0	5498	-0.01585528440773487
0	5312	-0.033501844853162766
0	5292	-0.00360537925735116
0	5220	-0.012979364953935146
0	5250	0.005419205408543348
0	5288	0.006921675987541676
0	5258	-0.005497458856552839
0	5326	0.012444639578461647
0	5300	-0.004738702904433012
0	5346	0.008369317278265953
0	5386	0.0072820838540792465
0	5362	-0.004370841663330793
0	5440	0.014216454699635506
0	5422	-0.0032827944960445166
0	5458	0.006569023709744215
0	5436	-0.004016895312815905
0	5440	0.0007308516651391983
0	5486	0.00840930175036192
0	5448	-0.006950626149773598
0	5470	0.004026993177831173
0	5436	-0.006226574070751667
0	5470	0.006232585292309523
0	5488	0.00330170220695436
0	5456	-0.00587551249191165
0	5522	0.012129973620176315
0	5460	-0.011404046788811684
0	5492	0.005894344300031662
0	5478	-0.0025810576044023037
0	5480	0.00036928532063029706
0	5598	0.021810652688145638
0	5570	-0.005175026599317789
0	5548	-0.004064289852976799
0	5498	-0.009223617613315582
0	5468	-0.005527168978005648
0	5508	0.007358351722359657
0	5486	-0.004040700849145651
0	5486	0.0
0	5506	0.0036638090386986732
0	5340	-0.03037622757256031
0	5414	0.013537906110286713
0	6142	0.13312852382659912
0	6728	0.10666957497596741
1	5770	-0.17295125126838684
0	4574	-0.21549032628536224
0	4880	0.0554160438477993
0	5366	0.08832187950611115
0	5436	0.012726656161248684
0	5506	0.012726964429020882
0	5512	0.00109075044747442
0	5532	0.0036344253458082676
0	5600	0.012352406978607178
0	5534	-0.01197720691561699
0	5612	0.01414940319955349
0	5548	-0.011601068079471588
0	5570	0.003985651768743992
0	5600	0.005433404818177223
0	5564	-0.0065145790576934814
0	5628	0.011576446704566479
0	5600	-0.005060119088739157
0	5600	0.0
0	5690	0.016252724453806877
0	5656	-0.0061354860663414
0	5730	0.01334503572434187
0	5682	-0.008644184097647667
0	5690	0.0014388489071279764
0	5702	0.0021559209562838078
0	5570	-0.023684494197368622
0	5506	-0.01147762406617403
0	5322	-0.03299817070364952
0	5264	-0.01040271669626236
0	5220	-0.007898799143731594
0	5218	-0.00036102821468375623
0	5286	0.012387510389089584
0	5248	-0.0069428374990820885
0	5320	0.013101072050631046
0	5322	0.0003629500570241362
0	5312	-0.001815233496017754
0	5408	0.017439326271414757
0	5366	-0.007634235545992851
0	5406	0.007277138065546751
0	5414	0.0014565404271706939
0	5418	0.0007290932699106634
0	5454	0.0065664672292768955
0	5398	-0.010224326513707638
0	5480	0.01498501468449831
0	5426	-0.009873593226075172
0	5438	0.002196461195126176
0	5482	0.00805988721549511
0	5440	-0.007700393442064524
0	5490	0.009176108054816723
0	5446	-0.00808041263371706
0	5468	0.00404624966904521
0	5476	0.0014730613911524415
0	5452	-0.004426084458827972
0	5560	0.019945580512285233
0	5538	-0.004066242836415768
0	5520	-0.0033302910160273314
0	5516	-0.0007402928895317018
0	5460	-0.010363461449742317
0	5500	0.007396175991743803
0	5488	-0.0022156299091875553
0	5484	-0.0007373272092081606
0	5484	0.0
0	5456	-0.005146617069840431
0	5422	-0.0062415096908807755
0	5276	-0.02678506076335907
0	6034	0.1391012817621231
0	6386	0.06431180983781815
0	5620	-0.13912265002727509
0	4878	-0.13455680012702942
0	4646	-0.042206376791000366
0	5036	0.07128234952688217
0	5398	0.06631898880004883
0	5514	0.021258659660816193
0	5600	0.015749569982290268
0	5572	-0.005124013405293226
0	5628	0.010238907299935818
0	5578	-0.009131308645009995
0	5590	0.0021902339067310095
0	5620	0.005470592528581619
0	5554	-0.012025800533592701
0	5644	0.016388069838285446
0	5598	-0.008367186412215233
0	5652	0.009815088473260403
0	5620	-0.005809309426695108
0	5608	-0.002177700400352478
0	5672	0.011609485372900963
0	5622	-0.009061582386493683
0	5676	0.009780245833098888
0	5702	0.0047028749249875546
0	5656	-0.0083103496581316
0	5724	0.012272448278963566
0	5616	-0.01946343295276165
0	5510	-0.019087864086031914
0	5368	-0.02556224912405014
0	5214	-0.027731426060199738
0	5204	-0.001801412203349173
0	5170	-0.0061554801650345325
0	5170	0.0
0	5250	0.014630577526986599
0	5240	-0.0018246843246743083
0	5306	0.011999563314020634
0	5272	-0.006171494722366333
0	5310	0.0069028157740831375
0	5348	0.00691135274246335
0	5338	-0.0018215600866824389
0	5404	0.012039401568472385
0	5352	-0.009498526342213154
0	5418	0.012072434648871422
0	5418	0.0
0	5420	0.0003666674892883748
0	5442	0.004036647733300924
0	5404	-0.006981016136705875
0	5480	0.013978639617562294
0	5450	-0.005523709114640951
0	5428	-0.004054950550198555
0	5484	0.01033311989158392
0	5456	-0.00517254089936614
0	5466	0.0018492264207452536
0	5424	-0.00777681777253747
0	5496	0.01335460226982832
0	5500	0.0007426569354720414
0	5518	0.0033465956803411245
0	5562	0.008185538463294506
0	5440	-0.02268894948065281
0	5484	0.008179249241948128
0	5428	-0.010392566211521626
0	5440	0.0022238970268517733
0	5460	0.0037003234028816223
0	5422	-0.00701806228607893
0	5460	0.00701063871383667
0	5330	-0.02395136095583439
0	5312	-0.0033158534206449986
0	6106	0.1462300717830658
0	6442	0.061579812318086624
1	5588	-0.15547627210617065
0	4654	-0.16978318989276886
0	4872	0.03980911150574684
0	5376	0.09230543673038483
0	5468	0.016853727400302887
0	5506	0.006959197111427784
0	5564	0.010616359300911427
0	5540	-0.004389708396047354
0	5550	0.001827529864385724
0	5558	0.0014614006504416466
0	5542	-0.0029208806809037924
0	5600	0.010580851696431637
0	5544	-0.0102087939158082
0	5588	0.008016908541321754
0	5604	0.0029130808543413877
0	5574	-0.005456066224724054
0	5660	0.01563333161175251
0	5588	-0.013075693510472775
0	5678	0.016337694600224495
0	5686	0.001451220829039812
0	5694	0.0014490653993561864
0	5742	0.008683382533490658
0	5670	-0.013000457547605038
0	5686	0.002884996822103858
0	5568	-0.02124798856675625
0	5388	-0.03238380700349808
0	5318	-0.012599144130945206
0	5210	-0.019440079107880592
0	5236	0.004682884551584721
0	5230	-0.0010863399365916848
0	5226	-0.0007295631221495569
0	5288	0.011333171278238297
0	5266	-0.004005972761660814
0	5356	0.01634897291660309
0	5352	-0.0007267089677043259
0	5326	-0.004726929124444723
0	5400	0.013468259014189243
0	5366	-0.006194281857460737
0	5402	0.006565588992089033
0	5404	0.0003650833969004452
0	5394	-0.0018271291628479958
0	5440	0.0084123769775033
0	5404	-0.006590027362108231
0	5476	0.013191322796046734
0	5450	-0.004766793921589851
0	5438	-0.002202131086960435
0	5498	0.011019823141396046
0	5430	-0.012501531280577183
0	5474	0.008097066543996334
0	5488	0.002579567488282919
0	5444	-0.008117083460092545
0	5518	0.013672475703060627
0	5466	-0.00962095893919468
0	5468	0.00037050299579277635
0	5452	-0.0029680198058485985
0	5482	0.005569031462073326
0	5568	0.015955274924635887
0	5550	-0.00333432131446898
0	5512	-0.007024375721812248
0	5520	0.001476305304095149
0	5434	-0.015842022374272346
0	5470	0.006623085122555494
0	5450	-0.0036753895692527294
0	5438	-0.0022027508821338415
0	5438	0.0
0	5332	-0.019437652081251144
0	5332	0.0
0	5832	0.0917218029499054
0	6708	0.16023999452590942
0	6026	-0.12376746535301208
1	4762	-0.22852733731269836
0	4774	0.002177858492359519
0	5294	0.0947556421160698
0	5442	0.026986943557858467
0	5476	0.006200985051691532
0	5550	0.013494128361344337
0	5484	-0.012027115561068058
0	5546	0.011299160309135914
0	5548	0.00036423237179405987
0	5548	0.0
0	5592	0.008006598800420761
0	5522	-0.012726346962153912
0	5594	0.013089640066027641
0	5554	-0.007266385946422815
0	5584	0.005446952767670155
0	5614	0.005442604422569275
0	5602	-0.0021753055043518543
0	5668	0.011961721815168858
0	5656	-0.0021733094472438097
0	5654	-0.00036190359969623387
0	5732	0.014102842658758163
0	5678	-0.009746002033352852
0	5706	0.005047167185693979
0	5594	-0.02015766128897667
0	5442	-0.027331247925758362
0	5338	-0.018699878826737404
0	5204	-0.024093208834528923
0	5234	0.005398143082857132
0	5234	0.0
0	5230	-0.0007288098568096757
0	5298	0.012449955567717552
0	5246	-0.009489513002336025
0	5356	0.020016498863697052
0	5328	-0.0050931936129927635
0	5318	-0.0018202557694166899
0	5418	0.018220024183392525
0	5388	-0.005470392759889364
0	5394	0.0010947174159809947
0	5436	0.007670112419873476
0	5394	-0.007675344590097666
0	5450	0.010243402794003487
0	5402	-0.008787667378783226
0	5488	0.015756109729409218
0	5442	-0.0084331464022398
0	5450	0.001467638649046421
0	5452	0.000367210537660867
0	5446	-0.0011027249274775386
0	5498	0.009566091932356358
0	5430	-0.012522558681666851
0	5500	0.01290877815335989
0	5464	-0.006645090878009796
0	5442	-0.004067596048116684
0	5480	0.00703608151525259
0	5416	-0.011866794899106026
0	5496	0.014849831350147724
0	5448	-0.008906922303140163
0	5462	0.00259608612395823
0	5486	0.004443346988409758
0	5444	-0.007763783913105726
0	5526	0.015138274990022182
0	5504	-0.0040541039779782295
0	5568	0.011778851971030235
0	5570	0.0003673634200822562
0	5506	-0.011740246787667274
0	5512	0.0010994515614584088
0	5434	-0.01427595317363739
0	5514	0.014640574343502522
0	5492	-0.004023065324872732
0	5480	-0.0021930893417447805
0	5496	0.002923335414379835
0	5352	-0.026293685659766197
0	5416	0.011693056672811508
0	6032	0.11253608763217926
0	6752	0.13110138475894928
0	5938	-0.1470481902360916
1	4760	-0.21218088269233704
0	4916	0.028215888887643814
0	5362	0.08092709630727768
0	5446	0.015254422090947628
0	5482	0.006536976434290409
0	5558	0.013801787048578262
0	5500	-0.010526953265070915
0	5548	0.00870890449732542
0	5528	-0.0036272185388952494
0	5548	0.003624764271080494
0	5576	0.005073076114058495
0	5528	-0.008689984679222107
0	5544	0.0028955084271728992
0	5576	0.00578899122774601
0	5552	-0.004338290076702833
0	5646	0.016988975927233696
0	5598	-0.008667806163430214
0	5684	0.015527015551924706
0	5678	-0.0010825374629348516
0	5692	0.0025233107153326273
0	5716	0.004321002401411533
0	5676	-0.007189503405243158
0	5656	-0.003591265995055437
0	5578	-0.013992203399538994
0	5442	-0.024382373318076134
0	5332	-0.019727403298020363
0	5188	-0.025828050449490547
0	5246	0.010417165234684944
0	5180	-0.011910061351954937
0	5240	0.010930687189102173
0	5294	0.009879494085907936
0	5274	-0.0036471947096288204
0	5324	0.00909818708896637
0	5390	0.012012376450002193
0	5326	-0.011652323417365551
0	5426	0.01822401024401188
0	5402	-0.004377271980047226
0	5408	0.0010949703864753246
0	5478	0.012785544618964195
0	5442	-0.006577424705028534
0	5464	0.004022134002298117
0	5490	0.004756677430123091
0	5434	-0.010247526690363884
0	5508	0.013550465926527977
0	5468	-0.0073276180773973465
0	5478	0.0018328445730730891
0	5524	0.008439747616648674
0	5456	-0.012481797486543655
0	5518	0.011396360583603382
0	5458	-0.011039558798074722
0	5514	0.010318395681679249
0	5498	-0.002951775211840868
0	5440	-0.010711911134421825
0	5494	0.009986437857151031
0	5464	-0.005550895817577839
0	5474	0.001850047498010099
0	5510	0.006654344033449888
0	5462	-0.008854890242218971
0	5482	0.0036846438888460398
0	5518	0.006620081141591072
0	5512	-0.0011014698538929224
0	5598	0.015766702592372894
0	5498	-0.018297145143151283
0	5442	-0.010235539637506008
0	5464	0.00401983130723238
0	5438	-0.004746719729155302
0	5480	0.007667218334972858
0	5472	-0.0014597296249121428
0	5466	-0.0010943713132292032
0	5428	-0.00693152379244566
0	5310	-0.021526038646697998
0	5770	0.08399371802806854
0	6358	0.10718322545289993
1	5400	-0.1736534833908081
0	4616	-0.1422058790922165
0	4878	0.047768957912921906
0	5354	0.08710397779941559
0	5494	0.025645408779382706
0	5532	0.006959281861782074
0	5536	0.0007324934122152627
0	5614	0.014276823960244656
0	5596	-0.003292642766609788
0	5598	0.00036563072353601456
0	5616	0.0032875111792236567
0	5570	-0.008395181968808174
0	5614	0.008024998940527439
0	5562	-0.00947602465748787
0	5620	0.010566074401140213
0	5582	-0.0069159651175141335
0	5642	0.010913323611021042
0	5654	0.0021810249891132116
0	5672	0.003268725471571088
0	5732	0.010890873149037361
0	5682	-0.009062896482646465
0	5740	0.010497737675905228
0	5716	-0.0043366700410842896
0	5714	-0.0003607850521802902
0	5680	-0.006124728359282017
0	5528	-0.027346981689333916
0	5468	-0.010790849104523659
0	5266	-0.036320481449365616
0	5234	-0.005755257792770863
0	5222	-0.0021651792339980602
0	5190	-0.00581353111192584
0	5248	0.010550442151725292
0	5268	0.00362419500015676
0	5260	-0.0014462709659710526
0	5330	0.012662043794989586
0	5320	-0.0018106538336724043
0	5334	0.0025381632149219513
0	5402	0.012343288399279118
0	5372	-0.005452562589198351
0	5412	0.007279963232576847
0	5398	-0.002550865290686488
0	5422	0.004378709476441145
0	5454	0.005843539256602526
0	5410	-0.008042699657380581
0	5480	0.012807064689695835
0	5440	-0.007324575912207365
0	5446	0.0010996395722031593
0	5476	0.005504789296537638
0	5428	-0.008817262016236782
0	5500	0.013245683163404465
0	5464	-0.006632277276366949
0	5486	0.004058491438627243
0	5482	-0.0007390619139187038
0	5454	-0.005180899519473314
0	5500	0.008525149896740913
0	5478	-0.0040817842818796635
0	5506	0.005196604877710342
0	5552	0.008535273373126984
0	5536	-0.0029635485261678696
0	5558	0.004067295230925083
0	5458	-0.018449503928422928
0	5496	0.0069992756471037865
0	5480	-0.0029425828251987696
0	5508	0.005142835900187492
0	5468	-0.007335770409554243
0	5426	-0.007696066051721573
0	5344	-0.01501593180000782
0	5444	0.018310993909835815
0	6156	0.13034085929393768
0	5964	-0.03498074784874916
1	5104	-0.1561610996723175
0	4758	-0.0629396066069603
0	5046	0.05260081589221954
0	5428	0.06994286924600601
0	5592	0.030024530366063118
0	5580	-0.002195416484028101
0	5652	0.013161261565983295
0	5596	-0.010223704390227795
0	5570	-0.004743256140500307
0	5622	0.009478326886892319
0	5576	-0.008378463797271252
0	5594	0.0032763013150542974
0	5608	0.002546565840020776
0	5588	-0.0036351741291582584
0	5620	0.005811560433357954
0	5580	-0.007259177044034004
0	5640	0.010882050730288029
0	5656	0.002899531275033951
0	5658	0.00036221384652890265
0	5736	0.014115944504737854
0	5706	-0.00542338564991951
0	5716	0.0018050975631922483
0	5690	-0.004687048960477114
0	5568	-0.021965358406305313
0	5524	-0.00791908148676157
0	5346	-0.032025523483753204
0	5276	-0.012600352987647057
0	5198	-0.014046124182641506
0	5186	-0.00216413801535964
0	5236	0.009070130065083504
0	5208	-0.005101730581372976
0	5270	0.011289559304714203
0	5262	-0.001452204305678606
0	5258	-0.000725154357496649
0	5320	0.011251452378928661
0	5312	-0.0014541929122060537
0	5388	0.013837303034961224
0	5366	-0.004011963028460741
0	5418	0.009496098384261131
0	5376	-0.007677028421312571
0	5398	0.004027337301522493
0	5462	0.011728628538548946
0	5426	-0.006602677516639233
0	5464	0.00697725685313344
0	5494	0.0055125439539551735
0	5402	-0.01691819354891777
0	5488	0.01583210565149784
0	5464	-0.004422387108206749
0	5446	-0.00332070654258132
0	5494	0.008866776712238789
0	5450	-0.008140007965266705
0	5516	0.012229317799210548
0	5476	-0.0074208746664226055
0	5478	0.0003715354250743985
0	5464	-0.0026021981611847878
0	5484	0.0037188082933425903
0	5566	0.01523408479988575
0	5556	-0.0018544846680015326
0	5502	-0.009992104955017567
0	5498	-0.0007387161604128778
0	5462	-0.006637739483267069
0	5488	0.004786450881510973
0	5478	-0.0018384831491857767
0	5458	-0.003672105260193348
0	5530	0.013203417882323265
0	5408	-0.022343777120113373
0	5394	-0.0025625380221754313
0	5502	0.019767427816987038
0	6316	0.14886431396007538
0	6174	-0.025827573612332344
1	5160	-0.18354269862174988
0	4710	-0.08157099783420563
0	5106	0.0721101313829422
0	5434	0.059843823313713074
0	5554	0.02189807780086994
0	5620	0.012039548717439175
0	5574	-0.00838009174913168
0	5642	0.012381494976580143
0	5596	-0.008366678841412067
0	5630	0.006178447976708412
0	5638	0.0014525558799505234
0	5614	-0.004352715332061052
0	5590	-0.004350137431174517
0	5646	0.010143334977328777
0	5614	-0.00579031789675355
0	5702	0.0159089807420969
0	5676	-0.004694214090704918
0	5732	0.010103926062583923
0	5750	0.0032442566007375717
0	5746	-0.000719873292837292
0	5726	-0.0035940196830779314
0	5770	0.007894358597695827
0	5666	-0.01862797699868679
0	5562	-0.018607093021273613
0	5426	-0.024317268282175064
0	5272	-0.027552809566259384
0	5276	0.0007162382826209068
0	5226	-0.008959289640188217
0	5292	0.011845788918435574
0	5302	0.0018058798741549253
0	5298	-0.0007261636783368886
0	5364	0.011971702799201012
0	5328	-0.006504300516098738
0	5406	0.014073832891881466
0	5384	-0.003970211371779442
0	5424	0.007225955370813608
0	5460	0.006511044222861528
0	5404	-0.010135257616639137
0	5478	0.013412276282906532
0	5446	-0.005804040934890509
0	5460	0.002542095957323909
0	5514	0.009815801866352558
0	5476	-0.0069116041995584965
0	5516	0.007280404679477215
0	5500	-0.0029144606087356806
0	5466	-0.006197518203407526
0	5560	0.01715891994535923
0	5482	-0.014248309656977654
0	5516	0.0062202708795666695
0	5520	0.000732842308934778
0	5494	-0.004770058672875166
0	5556	0.011390917003154755
0	5496	-0.011037933640182018
0	5536	0.007366301491856575
0	5506	-0.005525608081370592
0	5500	-0.001104579190723598
0	5524	0.004412143491208553
0	5474	-0.009178017266094685
0	5550	0.013929448090493679
0	5464	-0.015737464651465416
0	5516	0.009506282396614552
0	5556	0.007302823476493359
0	5554	-0.00036471502971835434
0	5622	0.012383299879729748
0	5508	-0.020733052864670753
0	5518	0.0018173226853832603
0	5496	-0.00399583438411355
0	5468	-0.005084499716758728
0	5502	0.006171644199639559
0	5458	-0.0079856738448143
0	5452	-0.001088876510038972
0	5384	-0.012341197580099106
0	5398	0.0025428347289562225
0	6002	0.10975697636604309
0	6600	0.10834772884845734
0	5870	-0.13139107823371887
1	4786	-0.19463497400283813
0	4842	0.010101738385856152
0	5314	0.08547215163707733
0	5436	0.022119348868727684
0	5458	0.003990760538727045
0	5550	0.01669226959347725
0	5490	-0.010886657051742077
0	5562	0.013064463622868061
0	5558	-0.0007256894023157656
0	5508	-0.009068265557289124
0	5570	0.011244106106460094
0	5530	-0.007252245210111141
0	5582	0.009424729272723198
0	5552	-0.0054362923838198185
0	5534	-0.0032600427512079477
0	5616	0.014849692583084106
0	5564	-0.009413468651473522
0	5630	0.011947142891585827
0	5670	0.007240342907607555
0	5668	-0.0003616636386141181
0	5720	0.009394760243594646
0	5700	-0.0036085015162825584
0	5698	-0.0003603473596740514
0	5604	-0.016916412860155106
0	5482	-0.02193613350391388
0	5380	-0.018336748704314232
0	5238	-0.02552824281156063
0	5230	-0.001439591171219945
0	5198	-0.005785154178738594
0	5216	0.0032818769104778767
0	5282	0.01208156906068325
0	5256	-0.004745045211166143
0	5342	0.015655718743801117
0	5296	-0.008372567594051361
0	5352	0.010201355442404747
0	5374	0.0040102568455040455
0	5386	0.0021897542756050825
0	5412	0.004747470840811729
0	5416	0.000731047592125833
0	5414	-0.00036584027111530304
0	5450	0.0065889013931155205
0	5406	-0.00805900152772665
0	5458	0.009531490504741669
0	5436	-0.004035611171275377
0	5438	0.00036713414010591805
0	5474	0.006612299010157585
0	5458	-0.0029413567390292883
0	5442	-0.00294326851144433
0	5478	0.006629996933043003
0	5430	-0.008850427344441414
0	5494	0.01181785762310028
0	5444	-0.009245562367141247
0	5460	0.002963255625218153
0	5478	0.0033385679125785828
0	5444	-0.006311099976301193
0	5504	0.011139853857457638
0	5464	-0.0074208746664226055
0	5448	-0.0029642072040587664
0	5500	0.009620721451938152
0	5448	-0.009602836333215237
0	5480	0.00590101070702076
0	5472	-0.001473459298722446
0	5462	-0.0018393849022686481
0	5480	0.003308458486571908
0	5416	-0.01175016164779663
0	5510	0.01725129410624504
0	5492	-0.003300693118944764
0	5546	0.009895668365061283
0	5546	0.0
0	5482	-0.011709315702319145
0	5528	0.008412581868469715
0	5436	-0.016817167401313782
0	5492	0.010234666056931019
0	5472	-0.0036544809117913246
0	5494	0.004019048064947128
0	5488	-0.0010957303456962109
0	5316	-0.03140825778245926
0	5384	0.012427960522472858
0	5918	0.09763053804636002
0	6706	0.14368374645709991
0	5946	-0.13751175999641418
1	4772	-0.21184197068214417
0	4782	0.0018117692088708282
0	5300	0.09423550218343735
0	5416	0.021125735715031624
0	5526	0.020036429166793823
0	5516	-0.0018212503055110574
0	5496	-0.0036413511261343956
0	5556	0.0109208719804883
0	5530	-0.004730770830065012
0	5570	0.0072744907811284065
0	5556	-0.0025446834042668343
0	5554	-0.0003633412707131356
0	5600	0.008352196775376797
0	5568	-0.005806006956845522
0	5632	0.011601348407566547
0	5588	-0.0079700518399477
0	5618	0.005430978257209063
0	5670	0.009409607388079166
0	5652	-0.0032547374721616507
0	5724	0.01300562359392643
0	5668	-0.010103560984134674
0	5690	0.00396372564136982
0	5626	-0.011517143808305264
0	5442	-0.03308122605085373
0	5294	-0.026617107912898064
0	5222	-0.01296394132077694
0	5208	-0.0025221891701221466
0	5256	0.008656655438244343
0	5234	-0.003983486909419298
0	5304	0.012788346968591213
0	5308	0.0007336308481171727
0	5316	0.0014624693430960178
0	5344	0.005102040711790323
0	5324	-0.0036433411296457052
0	5378	0.009842519648373127
0	5360	-0.0032837926410138607
0	5396	0.006573821883648634
0	5456	0.010963043197989464
0	5414	-0.0076788063161075115
0	5452	0.006952406372874975
0	5428	-0.00439415592700243
0	5482	0.009894580580294132
0	5454	-0.005132779944688082
0	5430	-0.004403454251587391
0	5484	0.009916141629219055
0	5456	-0.005146365147083998
0	5482	0.004782635252922773
0	5470	-0.0022092123981565237
0	5444	-0.004792509134858847
0	5532	0.01624155603349209
0	5460	-0.013304261490702629
0	5484	0.004440442658960819
0	5480	-0.000741015188395977
0	5466	-0.0025958935730159283
0	5530	0.011865182779729366
0	5470	-0.011107409372925758
0	5490	0.0036968118511140347
0	5498	0.001476160017773509
0	5480	-0.0033164238557219505
0	5506	0.00478316331282258
0	5470	-0.006614647805690765
0	5508	0.006975207477807999
0	5466	-0.007700393442064524
0	5470	0.0007328243809752166
0	5462	-0.0014643431641161442
0	5430	-0.005854372400790453
0	5528	0.017921365797519684
0	5524	-0.0007308961939997971
0	5560	0.006575342267751694
0	5526	-0.006204530596733093
0	5476	-0.009120204485952854
0	5492	0.0029176140669733286
0	5412	-0.01458718255162239
0	5464	0.00948408991098404
0	5454	-0.001823486527428031
0	5432	-0.004012402147054672
0	5378	-0.009850059635937214
0	5286	-0.01679220236837864
0	5670	0.07016774266958237
0	6530	0.15693049132823944
0	6272	-0.0467950813472271
1	5066	-0.21767118573188782
0	4632	-0.07853024452924728
0	5088	0.08293522894382477
0	5440	0.06416722387075424
0	5462	0.0040126461535692215
0	5498	0.0065664672292768955
0	5534	0.00656614825129509
0	5506	-0.005105886142700911
0	5556	0.009116213768720627
0	5524	-0.005832604132592678
0	5514	-0.0018220909405499697
0	5546	0.0058304788544774055
0	5510	-0.006556103006005287
0	5540	0.005462093278765678
0	5538	-0.00036396723589859903
0	5564	0.0047284760512411594
0	5608	0.00800029095262289
0	5582	-0.004725039005279541
0	5646	0.011629315093159676
0	5648	0.00036315215402282774
0	5694	0.008343813009560108
0	5658	-0.006521975621581078
0	5674	0.0028943559154868126
0	5678	0.0007226738962344825
0	5548	-0.023455260321497917
0	5450	-0.017669331282377243
0	5312	-0.02487054094672203
0	5212	-0.018019316717982292
0	5222	0.0018069023499265313
0	5190	-0.005828001070767641
0	5248	0.010633097030222416
0	5268	0.003662511706352234
0	5274	0.0010945043759420514
0	5326	0.009474988095462322
0	5302	-0.004376101307570934
0	5342	0.007300602272152901
0	5360	0.0032883919775485992
0	5376	0.002926115645095706
0	5404	0.005124763585627079
0	5392	-0.0021983657497912645
0	5416	0.004400278441607952
0	5478	0.011374199762940407
0	5416	-0.011378930881619453
0	5470	0.00991638470441103
0	5400	-0.01286008208990097
0	5446	0.008458059281110764
0	5450	0.0007360157324001193
0	5414	-0.006630566902458668
0	5492	0.014381061308085918
0	5432	-0.011072834953665733
0	5500	0.012565908953547478
0	5474	-0.004810360725969076
0	5480	0.0011113443179056048
0	5520	0.007417847402393818
0	5470	-0.009281374514102936
0	5476	0.001114302664063871
0	5506	0.005570617038756609
0	5444	-0.011498800478875637
0	5502	0.010741536505520344
0	5440	-0.011462518945336342
0	5460	0.0036918988917022943
0	5438	-0.004055798053741455
0	5482	0.008103130385279655
0	5550	0.012507051229476929
0	5484	-0.012122548185288906
0	5498	0.002568587427958846
0	5440	-0.01063114870339632
0	5462	0.004030534066259861
0	5470	0.0014648794895038009
0	5424	-0.00841966550797224
0	5480	0.010248026810586452
0	5432	-0.008780594915151596
0	5338	-0.017200155183672905
0	5414	0.013913127593696117
0	6162	0.1369812786579132
0	6120	-0.007655851077288389
1	5080	-0.18880026042461395
0	4672	-0.0742340087890625
0	5004	0.06067916750907898
0	5430	0.0780915841460228
0	5520	0.016498422250151634
0	5612	0.01686299405992031
0	5554	-0.010622061789035797
0	5626	0.013180054724216461
0	5580	-0.008415146730840206
0	5582	0.00036563072353601456
0	5620	0.006942499428987503
0	5552	-0.012414800003170967
0	5594	0.0076629286631941795
0	5594	0.0
0	5586	-0.001457424950785935
0	5638	0.009466019459068775
0	5620	-0.0032727273646742105
0	5602	-0.0032699923031032085
0	5708	0.01925055868923664
0	5676	-0.00580362044274807
0	5686	0.0018116816645488143
0	5700	0.0025325920432806015
0	5660	-0.007225607521831989
0	5658	-0.00036086750333197415
0	5512	-0.026306306943297386
0	5376	-0.024499794468283653
0	5300	-0.013695667497813702
0	5180	-0.02162967622280121
0	5208	0.005054030101746321
0	5280	0.01307110395282507
0	5252	-0.005109177902340889
0	5250	-0.00036455990630201995
0	5324	0.013441510498523712
0	5288	-0.006526468321681023
0	5370	0.014878612011671066
0	5324	-0.008354118093848228
0	5412	0.016009703278541565
0	5392	-0.0036417050287127495
0	5406	0.0025528189726173878
0	5440	0.006206267047673464
0	5378	-0.011327097192406654
0	5420	0.0076845199801027775
0	5456	0.006592038553208113
0	5416	-0.007330662105232477
0	5476	0.011007961817085743
0	5418	-0.010648193769156933
0	5442	0.004412089008837938
0	5470	0.005153058096766472
0	5450	-0.003683738876134157
0	5484	0.006272291298955679
0	5492	0.0014775777235627174
0	5408	-0.015533119440078735
0	5488	0.014820120297372341
0	5410	-0.01446498092263937
0	5514	0.019316254183650017
0	5508	-0.0011143854353576899
0	5522	0.002598109655082226
0	5466	-0.010378186590969563
0	5444	-0.004069953691214323
0	5456	0.002216748660430312
0	5476	0.0036905815359205008
0	5460	-0.002948403125628829
0	5436	-0.0044169072061777115
0	5398	-0.00698863435536623
0	5292	-0.019481472671031952
0	5644	0.06472412496805191
0	6204	0.10276863723993301
0	5912	-0.05332814157009125
1	4982	-0.16931049525737762
0	4774	-0.03796498104929924
0	5202	0.07843808084726334
0	5526	0.059442270547151566
0	5506	-0.00366689870133996
0	5584	0.014296537265181541
0	5564	-0.003662019968032837
0	5586	0.004026059526950121
0	5602	0.0029250457882881165
0	5570	-0.005844392813742161
0	5612	0.007666098885238171
0	5600	-0.002188157057389617
0	5568	-0.005830974783748388
0	5584	0.002914142096415162
0	5582	-0.0003638789348769933
0	5612	0.005455074366182089
0	5612	0.0
0	5648	0.006534207612276077
0	5684	0.006528677884489298
0	5666	-0.0032611454371362925
0	5726	0.010857369750738144
0	5708	-0.003251679940149188
0	5624	-0.01515151560306549
0	5592	-0.0057668741792440414
0	5442	-0.027010804042220116
0	5296	-0.026289569213986397
0	5270	-0.004684572108089924
0	5172	-0.017659567296504974
0	5220	0.008674176409840584
0	5226	0.0010907371761277318
0	5226	0.0
0	5302	0.013853108510375023
0	5274	-0.0050874557346105576
0	5354	0.014529252424836159
0	5308	-0.008363028056919575
0	5356	0.00873712170869112
0	5382	0.004739163443446159
0	5364	-0.0032845917157828808
0	5398	0.006212617736309767
0	5392	-0.0010977082420140505
0	5454	0.01135531160980463
0	5468	0.002566578332334757
0	5426	-0.007705950643867254
0	5446	0.003672689897939563
0	5460	0.0025730563793331385
0	5402	-0.010667778551578522
0	5472	0.012891503050923347
0	5426	-0.008478846400976181
0	5486	0.011074469424784184
0	5454	-0.005913587752729654
0	5446	-0.0014803300146013498
0	5502	0.01038023829460144
0	5460	-0.007795100100338459
0	5468	0.0014862889656797051
0	5510	0.007809014059603214
0	5496	-0.002601908054202795
0	5584	0.016334611922502518
0	5536	-0.008892511948943138
0	5484	-0.009611948393285275
0	5476	-0.001476359786465764
0	5434	-0.007738986983895302
0	5446	0.002208318095654249
0	5488	0.007722292095422745
0	5450	-0.006977683864533901
0	5372	-0.014314202591776848
0	5386	0.0025682104751467705
0	5886	0.09170497953891754
0	6458	0.10458822548389435
0	5690	-0.13949602842330933
1	4810	-0.15955710411071777
0	5270	0.08369926363229752
0	5406	0.02477351576089859
0	5550	0.02624066174030304
0	5500	-0.009104483760893345
0	5548	0.008737440221011639
0	5602	0.009824374690651894
0	5572	-0.005451373755931854
0	5554	-0.003268844448029995
0	5584	0.005443856120109558
0	5552	-0.005803339183330536
0	5568	0.002899951534345746
0	5568	0.0
0	5558	-0.0018104134360328317
0	5638	0.014474747702479362
0	5614	-0.004337976686656475
0	5650	0.006502890028059483
0	5674	0.00433124415576458
0	5648	-0.004689641762524843
0	5698	0.009012472815811634
0	5650	-0.008640863932669163
0	5588	-0.01114947535097599
0	5544	-0.007905233651399612
0	5342	-0.03627091646194458
0	5326	-0.0028754565864801407
0	5224	-0.018344663083553314
0	5238	0.00252013118006289
0	5242	0.0007206774316728115
0	5256	0.002532164566218853
0	5344	0.01603264920413494
0	5322	-0.004016601946204901
0	5308	-0.0025480797048658133
0	5364	0.010189970023930073
0	5344	-0.0036402023397386074
0	5424	0.014579029753804207
0	5398	-0.004740373697131872
0	5430	0.00583962956443429
0	5432	0.0003653590683825314
0	5428	-0.0007313416572287679
0	5480	0.009514747187495232
0	5444	-0.006591313984245062
0	5436	-0.0014657025458291173
0	5480	0.00806786771863699
0	5440	-0.007338372524827719
0	5462	0.004039019346237183
0	5474	0.002205476863309741
0	5438	-0.006622110493481159
0	5486	0.008840973488986492
0	5450	-0.006638391874730587
0	5480	0.005538734141737223
0	5466	-0.0025882150512188673
0	5454	-0.0022209882736206055
0	5500	0.00852083321660757
0	5472	-0.005188003182411194
0	5468	-0.0007405487704090774
0	5430	-0.0070290532894432545
0	5496	0.012192868627607822
0	5530	0.006271211430430412
0	5546	0.002945941872894764
0	5560	0.0025731194764375687
0	5484	-0.013949901796877384
0	5470	-0.0025671743787825108
0	5474	0.000732752843759954
0	5458	-0.0029290439561009407
0	5514	0.010244526900351048
0	5464	-0.009141881950199604
0	5356	-0.01973852515220642
0	5450	0.017187574878335
0	6036	0.1071363314986229
0	6374	0.06156723573803902
1	5020	-0.24530170857906342
0	4812	-0.03777971491217613
0	5424	0.11158110201358795
0	5452	0.005106755532324314
0	5508	0.010212766006588936
0	5534	0.004740315955132246
0	5506	-0.005103094503283501
0	5562	0.010201974771916866
0	5534	-0.005098634399473667
0	5532	-0.0003640025679487735
0	5544	0.00218332652002573
0	5548	0.0007274314411915839
0	5574	0.0047256117686629295
0	5544	-0.005450185388326645
0	5584	0.007263747043907642
0	5618	0.006169852800667286
0	5574	-0.007975446060299873
0	5652	0.014131629839539528
0	5634	-0.00325874425470829
0	5678	0.007961591705679893
0	5672	-0.0010848994133993983
0	5660	-0.0021673429291695356
0	5660	0.0
0	5574	-0.015497543849050999
0	5496	-0.014046124182641506
0	5344	-0.02737489342689514
0	5266	-0.014057769440114498
0	5248	-0.0032458556815981865
0	5202	-0.008305048570036888
0	5270	0.01233895868062973
0	5322	0.00949910469353199
0	5294	-0.005105514079332352
0	5344	0.009090357460081577
0	5340	-0.0007275814423337579
0	5368	0.005096531007438898
0	5422	0.009837379679083824
0	5372	-0.009114883840084076
0	5416	0.008027634583413601
0	5410	-0.001095650251954794
0	5394	-0.002923940774053335
0	5444	0.00914500281214714
0	5398	-0.008418535813689232
0	5426	0.0051290192641317844
0	5490	0.011734075844287872
0	5434	-0.010270706377923489
0	5468	0.0062415096908807755
0	5450	-0.0033073644153773785
0	5428	-0.004045406822115183
0	5450	0.0040509686805307865
0	5506	0.010323215276002884
0	5444	-0.011441366747021675
0	5488	0.008131083101034164
0	5482	-0.0011099600233137608
0	5482	0.0
0	5484	0.00037060369504615664
0	5422	-0.011489566415548325
0	5492	0.012965844944119453
0	5528	0.0066588567569851875
0	5522	-0.0011078969109803438
0	5532	0.0018428650218993425
0	5464	-0.01251134555786848
0	5466	0.0003676605992950499
0	5496	0.005509102251380682
0	5466	-0.0055039809085428715
0	5512	0.008432939648628235
0	5462	-0.009158180095255375
0	5422	-0.007324755657464266
0	5356	-0.012082158587872982
0	5592	0.043218694627285004
0	6646	0.19280488789081573
0	6136	-0.09258586913347244
1	4984	-0.20826302468776703
0	4740	-0.04422159120440483
0	5204	0.08444347977638245
0	5404	0.03646130859851837
0	5502	0.01786929927766323
0	5496	-0.0010938126360997558
0	5562	0.012028577737510204
0	5518	-0.008012528531253338
0	5528	0.0018202780047431588
0	5562	0.006188118830323219
0	5530	-0.005819945130497217
0	5558	0.005091155879199505
0	5550	-0.0014539462281391025
0	5560	0.001816684496589005
0	5590	0.005447546020150185
0	5568	-0.003990808967500925
0	5572	0.0007252683280967176
0	5634	0.011238670907914639
0	5630	-0.0007245852029882371
0	5680	0.009051958099007607
0	5670	-0.0018080349545925856
0	5646	-0.004333955235779285
0	5678	0.005773394368588924
0	5566	-0.02018114924430847
0	5418	-0.026659302413463593
0	5334	-0.015134952962398529
0	5214	-0.02163279615342617
0	5262	0.008660508319735527
0	5214	-0.008677731268107891
0	5236	0.004011914134025574
0	5290	0.009901595301926136
0	5286	-0.0007320822915062308
0	5330	0.00802616961300373
0	5364	0.006197292823344469
0	5348	-0.0029170820489525795
0	5396	0.008759443648159504
0	5380	-0.0029215917456895113
0	5394	0.002559227868914604
0	5452	0.010610532946884632
0	5426	-0.004758650902658701
0	5426	0.0
0	5460	0.006231976207345724
0	5406	-0.009903774596750736
0	5468	0.011381019838154316
0	5452	-0.0029386915266513824
0	5460	0.00147058826405555
0	5492	0.00588624831289053
0	5446	-0.008465634658932686
0	5506	0.011054880917072296
0	5474	-0.005900430027395487
0	5468	-0.0011077332310378551
0	5496	0.005175855942070484
0	5460	-0.006660827901214361
0	5488	0.005187618546187878
0	5456	-0.00593156460672617
0	5514	0.010748437605798244
0	5514	0.0
0	5556	0.007760340813547373
0	5542	-0.002582104876637459
0	5456	-0.015829579904675484
0	5498	0.007720304187387228
0	5442	-0.010280637070536613
0	5440	-0.00036681542405858636
0	5492	0.009530792012810707
0	5446	-0.008424497209489346
0	5462	0.0029285079799592495
0	5328	-0.024516381323337555
0	5436	0.019765740260481834
0	6090	0.11966187506914139
0	6260	0.03098420426249504
1	5162	-0.1991126388311386
0	4606	-0.10098686814308167
0	5032	0.0777769610285759
0	5426	0.07209866493940353
0	5460	0.006223306525498629
0	5528	0.012446005828678608
0	5536	0.001463628839701414
0	5526	-0.0018290451262146235
0	5580	0.009872029535472393
0	5540	-0.00730931805446744
0	5524	-0.002922552404925227
0	5612	0.016068559139966965
0	5572	-0.007298737298697233
0	5586	0.0025528189726173878
0	5614	0.005102598574012518
0	5594	-0.0036412186454981565
0	5658	0.011646244674921036
0	5602	-0.01018157135695219
0	5636	0.006179945543408394
0	5716	0.01453277189284563
0	5654	-0.01124519295990467
0	5688	0.006160908844321966
0	5628	-0.010856060311198235
0	5592	-0.006506259087473154
0	5534	-0.010475995019078255
0	5322	-0.03827129304409027
0	5290	-0.00578166963532567
0	5218	-0.013011734001338482
0	5190	-0.00506677245721221
0	5258	0.012372183613479137
0	5232	-0.0047594644129276276
0	5304	0.01317442674189806
0	5336	0.0058304788544774055
0	5328	-0.0014549334300681949
0	5384	0.010190588422119617
0	5326	-0.010559405200183392
0	5414	0.016040831804275513
0	5386	-0.005107687320560217
0	5400	0.002556019462645054
0	5464	0.01169747393578291
0	5414	-0.009142884984612465
0	5484	0.012808626517653465
0	5450	-0.006226194091141224
0	5434	-0.0029321571346372366
0	5478	0.008070926181972027
0	5438	-0.007343312259763479
0	5484	0.008452878333628178
0	5464	-0.0036790857557207346
0	5434	-0.005523302126675844
0	5494	0.011060316115617752
0	5442	-0.00959870032966137
0	5490	0.008871911093592644
0	5506	0.0029609159100800753
0	5430	-0.014074943028390408
0	5514	0.01557208877056837
0	5492	-0.004078908357769251
0	5532	0.00740841357037425
0	5580	0.008876834064722061
0	5514	-0.012178470380604267
0	5502	-0.00220986339263618
0	5446	-0.010297272354364395
0	5502	0.010283783078193665
0	5448	-0.009904501028358936
0	5498	0.009164558723568916
0	5462	-0.0065916357561945915
0	5480	0.0032942495308816433
0	5384	-0.01755284145474434
0	5352	-0.00585201708599925
0	5674	0.05889812856912613
0	6524	0.15521711111068726
0	6290	-0.04245642572641373
1	4982	-0.23606982827186584
0	4756	-0.040912382304668427
0	5252	0.09016761183738708
0	5442	0.034578148275613785
0	5486	0.008009320124983788
0	5554	0.012374435551464558
0	5528	-0.004729393869638443
0	5588	0.010909751988947392
0	5516	-0.013079495169222355
0	5560	0.00799195934087038
0	5568	0.0014520460972562432
0	5546	-0.003991243429481983
0	5570	0.004353031050413847
0	5540	-0.005436686333268881
0	5594	0.009784500114619732
0	5560	-0.00615681754425168
0	5620	0.010863136500120163
0	5630	0.0018100857269018888
0	5620	-0.001808819710277021
0	5696	0.013737257570028305
0	5702	0.0010828891536220908
0	5648	-0.009734289720654488
0	5656	0.0014403859386220574
0	5620	-0.006475596223026514
0	5494	-0.022643135860562325
0	5416	-0.014016004279255867
0	5252	-0.02946390025317669
0	5236	-0.002876249374821782
0	5248	0.002162863500416279
0	5232	-0.0029060968663543463
0	5288	0.010236911475658417
0	5276	-0.0021895412355661392
0	5280	0.0007275461102835834
0	5354	0.013457318767905235
0	5340	-0.0025473381392657757
0	5394	0.00983415450900793
0	5370	-0.00437498465180397
0	5364	-0.001094797276891768
0	5464	0.018271515145897865
0	5410	-0.009869744069874287
0	5464	0.009878771379590034
0	5440	-0.0043933517299592495
0	5426	-0.0025644470006227493
0	5474	0.008800126612186432
0	5442	-0.005869118496775627
0	5502	0.011014833115041256
0	5462	-0.007345829624682665
0	5472	0.0018382353009656072
0	5510	0.006992063485085964
0	5462	-0.008838042616844177
0	5508	0.008481972850859165
0	5482	-0.00479988195002079
0	5480	-0.0003695992345456034
0	5468	-0.0022200022358447313
0	5448	-0.003703474998474121
0	5510	0.011484034359455109
0	5500	-0.0018511891830712557
0	5560	0.011090162210166454
0	5502	-0.010699133388698101
0	5466	-0.006630485411733389
0	5490	0.004413982387632132
0	5444	-0.008449668996036053
0	5472	0.00513799162581563
0	5460	-0.002199413487687707
0	5412	-0.008791960775852203
0	5390	-0.004027877934277058
0	5316	-0.013548647053539753
0	5926	0.11172161251306534
0	6650	0.13214732706546783
0	5944	-0.12793873250484467
1	4714	-0.22217939794063568
0	4934	0.03991967439651489
0	5374	0.08008445054292679
0	5486	0.020391566678881645
0	5526	0.007282171864062548
0	5520	-0.0010917693143710494
0	5564	0.008005433715879917
0	5552	-0.0021819504909217358
0	5564	0.00218089297413826
0	5580	0.0029069064185023308
0	5558	-0.0039941417053341866
0	5580	0.00399293377995491
0	5574	-0.0010883366921916604
0	5584	0.0018128640949726105
0	5598	0.0025362318847328424
0	5582	-0.002895927522331476
0	5652	0.012664182111620903
0	5590	-0.01120657380670309
0	5656	0.011927423067390919
0	5682	0.004694326780736446
0	5654	-0.005048865918070078
0	5706	0.009367231279611588
0	5644	-0.011151079088449478
0	5638	-0.0010780250886455178
0	5506	-0.023691296577453613
0	5468	-0.0068163881078362465
0	5292	-0.03155592083930969
0	5258	-0.006096904631704092
0	5236	-0.003960871137678623
0	5236	0.0
0	5274	0.00692975427955389
0	5250	-0.004361839033663273
0	5312	0.011246553622186184
0	5326	0.0025404966436326504
0	5330	0.0007265593740157783
0	5384	0.00982020515948534
0	5380	-0.0007280227728188038
0	5402	0.0040086000226438046
0	5424	0.00401225546374917
0	5416	-0.0014602448791265488
0	5466	0.009135645814239979
0	5432	-0.0062157223001122475
0	5476	0.008051136508584023
0	5432	-0.00805595237761736
0	5472	0.007330392953008413
0	5436	-0.00660243583843112
0	5470	0.006241204217076302
0	5494	0.004410467576235533
0	5442	-0.009561635553836823
0	5474	0.005891811568289995
0	5452	-0.004055798053741455
0	5490	0.0070141758769750595
0	5506	0.002957267453894019
0	5462	-0.008139406330883503
0	5478	0.0029629997443407774
0	5454	-0.004445267841219902
0	5498	0.00815036240965128
0	5520	0.004070003982633352
0	5562	0.007757474202662706
0	5528	-0.006267281249165535
0	5474	-0.009936089627444744
0	5496	0.004043077118694782
0	5454	-0.007706987671554089
0	5484	0.005500213708728552
0	5464	-0.0036632718984037638
0	5442	-0.004026304930448532
0	5450	0.0014635931001976132
0	5296	-0.028162144124507904
0	5656	0.06587615609169006
0	6574	0.16774681210517883
0	6218	-0.0645965114235878
1	4968	-0.22578662633895874
0	4750	-0.039487507194280624
0	5230	0.08732777088880539
0	5468	0.0433531291782856
0	5506	0.0069220964796841145
0	5528	0.0040058265440166
0	5592	0.01164921373128891
0	5554	-0.006912610027939081
0	5570	0.002908597467467189
0	5566	-0.0007267266046255827
0	5566	0.0
0	5612	0.008347749710083008
0	5556	-0.010155966505408287
0	5602	0.008337663486599922
0	5602	0.0
0	5592	-0.001809561625123024
0	5632	0.007234144955873489
0	5616	-0.0028917056042701006
0	5678	0.011201715096831322
0	5644	-0.006137331947684288
0	5652	0.0014426024863496423
0	5652	0.0
0	5618	-0.006118041928857565
0	5638	0.0035959582310169935
0	5518	-0.021553272381424904
0	5442	-0.013644197955727577
0	5320	-0.02190357632935047
0	5238	-0.014719962142407894
0	5240	0.00035992369521409273
0	5198	-0.007619370240718126
0	5302	0.018984107300639153
0	5280	-0.004007724113762379
0	5284	0.0007263394654728472
0	5344	0.010891532525420189
0	5346	0.00036332369199953973
0	5366	0.0036367604043334723
0	5404	0.006916636135429144
0	5386	-0.0032800426706671715
0	5438	0.009485358372330666
0	5446	0.0014604580355808139
0	5438	-0.0014615253312513232
0	5462	0.004387996159493923
0	5426	-0.006588017102330923
0	5444	0.003296622773632407
0	5448	0.0007332901586778462
0	5424	-0.0044038849882781506
0	5472	0.008816830813884735
0	5426	-0.008457748219370842
0	5478	0.009572078473865986
0	5462	-0.002948873909190297
0	5452	-0.0018451091600582004
0	5480	0.005172668490558863
0	5474	-0.0011096042580902576
0	5508	0.006293343845754862
0	5540	0.005927901715040207
0	5526	-0.002593104960396886
0	5532	0.0011107545578852296
0	5462	-0.012941872701048851
0	5468	0.0011077740928158164
0	5468	0.0
0	5452	-0.0029450382571667433
0	5498	0.008459199219942093
0	5460	-0.0069787087850272655
0	5382	-0.014309301041066647
0	5346	-0.006602758541703224
0	5800	0.08326812088489532
0	6398	0.10938891023397446
1	5520	-0.15964023768901825
0	4676	-0.15333373844623566
0	4952	0.050374772399663925
0	5438	0.08897079527378082
0	5554	0.02123582735657692
0	5546	-0.0014637181302532554
0	5604	0.010604195296764374
0	5596	-0.001461222767829895
0	5628	0.00583962956443429
0	5606	-0.004009769298136234
0	5580	-0.0047349631786346436
0	5622	0.0076416428200900555
0	5572	-0.009089256636798382
0	5592	0.003633280983194709
0	5640	0.008712487295269966
0	5590	-0.009066731669008732
0	5660	0.012684529647231102
0	5606	-0.00977623276412487
0	5678	0.013029787689447403
0	5628	-0.009040174074470997
0	5664	0.00650516152381897
0	5694	0.005414380691945553
0	5652	-0.007569840643554926
0	5658	0.0010802117176353931
0	5556	-0.018340924754738808
0	5406	-0.026962576434016228
0	5324	-0.014744311571121216
0	5216	-0.019426090642809868
0	5230	0.0025201612152159214
0	5202	-0.005057620350271463
0	5244	0.007641457486897707
0	5290	0.008383248001337051
0	5252	-0.006899557076394558
0	5364	0.020298680290579796
0	5334	-0.005439578555524349
0	5340	0.001089364173822105
0	5440	0.018178734928369522
0	5386	-0.009826281107962132
0	5442	0.010203213430941105
0	5416	-0.004742564167827368
0	5438	0.004017580300569534
0	5450	0.002193303080275655
0	5416	-0.0062208776362240314
0	5486	0.012819887138903141
0	5440	-0.008429951965808868
0	5450	0.001834839815273881
0	5480	0.005509237293154001
0	5440	-0.007353752385824919
0	5494	0.00993767473846674
0	5452	-0.007738036569207907
0	5526	0.013648435473442078
0	5488	-0.007014607544988394
0	5548	0.011089753359556198
0	5528	-0.003698954591527581
0	5442	-0.01591826044023037
0	5498	0.010372675955295563
0	5486	-0.0022214544005692005
0	5462	-0.004438471514731646
0	5522	0.011079377494752407
0	5460	-0.011428149417042732
0	5484	0.004416798707097769
0	5330	-0.02829946018755436
0	5564	0.04298994317650795
0	6122	0.10231898725032806
0	5848	-0.05001095309853554
0	5044	-0.14628998935222626
0	4774	-0.04921558499336243
0	4922	0.027087043970823288
0	5346	0.07782101631164551
0	5518	0.031587451696395874
0	5608	0.0165180042386055
0	5602	-0.001100056222639978
0	5568	-0.006227866280823946
0	5606	0.006954103242605925
0	5572	-0.006217540707439184
0	5630	0.010597866028547287
0	5578	-0.009491129778325558
0	5592	0.002553781261667609
0	5604	0.002186934230849147
0	5566	-0.006920667365193367
0	5654	0.01601572334766388
0	5604	-0.009092782624065876
0	5614	0.0018172786803916097
0	5650	0.0065395887941122055
0	5636	-0.002541295951232314
0	5702	0.011966348625719547
0	5676	-0.0047082118690013885
0	5650	-0.004702818114310503
0	5656	0.0010840368922799826
0	5520	-0.024551689624786377
0	5476	-0.007940326817333698
0	5290	-0.03356754407286644
0	5222	-0.01227495912462473
0	5218	-0.000723545323126018
0	5182	-0.006547597236931324
0	5268	0.015704894438385963
0	5242	-0.0047415257431566715
0	5290	0.0087287537753582
0	5314	0.004354663193225861
0	5332	0.0032666295301169157
0	5380	0.008720824494957924
0	5348	-0.0058219218626618385
0	5404	0.010204081423580647
0	5424	0.0036479486152529716
0	5406	-0.003286790568381548
0	5486	0.014622733928263187
0	5420	-0.012074348516762257
0	5462	0.007691086735576391
0	5460	-0.0003665330877993256
0	5430	-0.005502836778759956
0	5492	0.011381994001567364
0	5442	-0.009188137017190456
0	5456	0.002575233578681946
0	5476	0.0036824727430939674
0	5470	-0.0011059227399528027
0	5522	0.009594450704753399
0	5522	0.0
0	5544	0.004067546222358942
0	5462	-0.015170763246715069
0	5420	-0.007779698818922043
0	5466	0.008525886572897434
0	5440	-0.004819277208298445
0	5466	0.004814814776182175
0	5476	0.0018490668153390288
0	5414	-0.011446013115346432
0	5358	-0.010323595255613327
0	5368	0.0018424801528453827
0	6086	0.13218779861927032
0	6066	-0.003664211602881551
1	5094	-0.17726659774780273
0	4770	-0.05917447805404663
0	5106	0.06159486621618271
0	5438	0.060951732099056244
0	5500	0.011380183510482311
0	5576	0.013943418860435486
0	5560	-0.0029324081260710955
0	5602	0.007694092579185963
0	5558	-0.008051530458033085
0	5576	0.003291880013421178
0	5586	0.001827529864385724
0	5558	-0.005112225189805031
0	5624	0.01204540766775608
0	5572	-0.0094798244535923
0	5602	0.005465277004987001
0	5616	0.0025485127698630095
0	5620	0.000727501988876611
0	5640	0.0036353501491248608
0	5642	0.0003632752923294902
0	5720	0.01415933482348919
0	5676	-0.007974866777658463
0	5658	-0.0032574075739830732
0	5714	0.010122433304786682
0	5630	-0.01515862438827753
0	5582	-0.008653533644974232
0	5440	-0.025583742186427116
0	5340	-0.018013907596468925
0	5286	-0.009728561155498028
0	5256	-0.005407419055700302
0	5266	0.0018115066923201084
0	5228	-0.006917139980942011
0	5278	0.00909410510212183
0	5324	0.008340888656675816
0	5312	-0.002173020737245679
0	5394	0.014860276132822037
0	5340	-0.009792306460440159
0	5416	0.01380145363509655
0	5388	-0.005089181941002607
0	5416	0.0050957887433469296
0	5450	0.006193078123033047
0	5414	-0.006562397815287113
0	5462	0.00875901710242033
0	5460	-0.00036517230910249054
0	5466	0.001096611493267119
0	5492	0.004755053669214249
0	5454	-0.006954357028007507
0	5486	0.005862094461917877
0	5434	-0.00953370425850153
0	5448	0.0025700018741190434
0	5512	0.011762543581426144
0	5520	0.0014721938641741872
0	5562	0.007736421190202236
0	5492	-0.012901640497148037
0	5486	-0.0011073652422055602
0	5468	-0.003325041150674224
0	5432	-0.006654753815382719
0	5480	0.008873443119227886
0	5450	-0.005541121121495962
0	5476	0.004797460976988077
0	5428	-0.008844883181154728
0	5416	-0.002209022641181946
0	5308	-0.01985829509794712
0	5852	0.10000858455896378
0	6502	0.11911015957593918
0	5938	-0.10260515660047531
1	4994	-0.1711716204881668
0	4730	-0.04797034710645676
0	5070	0.06203775852918625
0	5430	0.06581433117389679
0	5470	0.007312079891562462
0	5544	0.013525698333978653
0	5538	-0.001095810323022306
0	5544	0.0010953036835417151
0	5590	0.008393037132918835
0	5546	-0.008022072724997997
0	5594	0.008748481050133705
0	5544	-0.009105256758630276
0	5606	0.011286544613540173
0	5558	-0.008728859946131706
0	5580	0.003998061642050743
0	5576	-0.0007266210159286857
0	5576	0.0
0	5602	0.004721035249531269
0	5658	0.010161618702113628
0	5654	-0.0007250755443237722
0	5662	0.0014485231367871165
0	5670	0.0014465150889009237
0	5620	-0.009030378423631191
0	5614	-0.0010825374629348516
0	5478	-0.02451716735959053
0	5402	-0.013696655631065369
0	5288	-0.02054671011865139
0	5220	-0.012257405556738377
0	5286	0.011942243203520775
0	5260	-0.004739278927445412
0	5302	0.007687426637858152
0	5286	-0.0029230506625026464
0	5310	0.004369780421257019
0	5398	0.01599922403693199
0	5362	-0.006546406541019678
0	5380	0.0032753474079072475
0	5390	0.0018214493757113814
0	5388	-0.00036461750278249383
0	5436	0.00875912420451641
0	5406	-0.005479585379362106
0	5442	0.006581111811101437
0	5428	-0.0025616942439228296
0	5438	0.0018310770392417908
0	5490	0.009531374089419842
0	5454	-0.006601386237889528
0	5506	0.009542685002088547
0	5470	-0.006609304342418909
0	5456	-0.00257195346057415
0	5498	0.007722764741629362
0	5436	-0.011411462910473347
0	5530	0.01732442155480385
0	5506	-0.004426846280694008
0	5562	0.010339734144508839
0	5556	-0.0011082241544499993
0	5470	-0.015890222042798996
0	5498	0.005173815414309502
0	5442	-0.010341515764594078
0	5472	0.0055348509922623634
0	5462	-0.0018420955166220665
0	5454	-0.0014720855979248881
0	5478	0.004411008208990097
0	5366	-0.020562533289194107
0	5406	0.00734016764909029
0	6212	0.14781758189201355
0	6592	0.06934560090303421
1	5654	-0.16990292072296143
0	4630	-0.18517403304576874
0	4990	0.06539984792470932
0	5362	0.06774310767650604
0	5470	0.019676193594932556
0	5462	-0.0014569294871762395
0	5526	0.011654021218419075
0	5506	-0.0036397166550159454
0	5548	0.007640252821147442
0	5548	0.0
0	5542	-0.0010904597584158182
0	5568	0.004724294878542423
0	5536	-0.0058110677637159824
0	5576	0.007260318845510483
0	5584	0.0014513788046315312
0	5552	-0.005800324026495218
0	5594	0.0076119136065244675
0	5616	0.003985073883086443
0	5646	0.005432420875877142
0	5644	-0.00036196474684402347
0	5660	0.002892681397497654
0	5704	0.00794711522758007
0	5624	-0.014426544308662415
0	5640	0.0028826752677559853
0	5546	-0.016917631030082703
0	5428	-0.02122531272470951
0	5350	-0.014034498482942581
0	5240	-0.01979414001107216
0	5268	0.005043530836701393
0	5224	-0.007970725186169147
0	5292	0.012420998886227608
0	5296	0.0007322609890252352
0	5314	0.003281836863607168
0	5366	0.009462229907512665
0	5356	-0.0018196154851466417
0	5378	0.004005923867225647
0	5380	0.00036436066147871315
0	5382	0.000364683975931257
0	5440	0.01058381237089634
0	5404	-0.006573581136763096
0	5444	0.007310387212783098
0	5418	-0.00475458987057209
0	5466	0.008785737678408623
0	5456	-0.0018311439780518413
0	5434	-0.004031469579786062
0	5462	0.00513566704466939
0	5484	0.004037388600409031
0	5468	-0.002938259858638048
0	5480	0.0022056931629776955
0	5450	-0.005519846919924021
0	5522	0.013263413682579994
0	5478	-0.008112293668091297
0	5458	-0.003692534752190113
0	5472	0.0025874178390949965
0	5484	0.0022200841922312975
0	5556	0.013325600884854794
0	5544	-0.002219181274995208
0	5498	-0.00849669985473156
0	5508	0.001844179118052125
0	5442	-0.01215365156531334
0	5498	0.010298408567905426
0	5464	-0.006244719494134188
0	5482	0.0033026309683918953
0	5500	0.0032992411870509386
0	5392	-0.019779253751039505
0	5378	-0.002563413931056857
0	5702	0.0593247227370739
0	6726	0.18712764978408813
0	6260	-0.08446619659662247
1	4922	-0.24132747948169708
0	4714	-0.03762481361627579
0	5216	0.09120750427246094
0	5406	0.03456304967403412
0	5500	0.017105836421251297
0	5502	0.00036385690327733755
0	5544	0.007637845352292061
0	5564	0.0036352621391415596
0	5504	-0.01090050209313631
0	5574	0.01271448191255331
0	5520	-0.009802735410630703
0	5588	0.01233895868062973
0	5548	-0.0072553143836557865
0	5534	-0.002538285916671157
0	5594	0.010873372666537762
0	5564	-0.005432683043181896
0	5612	0.008688097819685936
0	5602	-0.0018094090046361089
0	5632	0.005426328629255295
0	5656	0.004337558057159185
0	5648	-0.001444564783014357
0	5676	0.0050497157499194145
0	5648	-0.0050443182699382305
0	5638	-0.0017995537491515279
0	5520	-0.021214881911873817
0	5334	-0.03343639895319939
0	5282	-0.009351060725748539
0	5224	-0.010436034761369228
0	5218	-0.0010826936922967434
0	5284	0.01201864704489708
0	5266	-0.0032973475754261017
0	5318	0.009505704045295715
0	5302	-0.0029141067061573267
0	5342	0.0072814649902284145
0	5362	0.0036421469412744045
0	5344	-0.003280680626630783
0	5408	0.011675849556922913
0	5396	-0.0021910336799919605
0	5406	0.00182773033156991
0	5430	0.004389173351228237
0	5440	0.0018304289551451802
0	5462	0.004028910771012306
0	5450	-0.0021992791444063187
0	5452	0.0003667660930659622
0	5472	0.003669500118121505
0	5432	-0.007344480603933334
0	5448	0.002940167672932148
0	5420	-0.005150467157363892
0	5462	0.007734331768006086
0	5440	-0.0040555489249527454
0	5418	-0.004060938488692045
0	5478	0.011090983636677265
0	5430	-0.008883624337613583
0	5480	0.00926623772829771
0	5464	-0.0029680931475013494
0	5442	-0.004082541912794113
0	5480	0.007046955171972513
0	5482	0.00037043896736577153
0	5576	0.017382942140102386
0	5558	-0.003321319352835417
0	5536	-0.004052560776472092
0	5510	-0.0047814627178013325
0	5436	-0.013592779636383057
0	5498	0.011379209347069263
0	5462	-0.0066009825095534325
0	5470	0.0014659890439361334
0	5480	0.0018310770392417908
0	5380	-0.01830272749066353
0	5336	-0.008053986355662346
0	5736	0.07324934005737305
0	6624	0.16231036186218262
0	6244	-0.06895967572927475
1	4924	-0.23841634392738342
0	4740	-0.033339373767375946
0	5270	0.09644664078950882
0	5412	0.0258721224963665
0	5472	0.010933210141956806
0	5538	0.012024778872728348
0	5510	-0.0050977678038179874
0	5572	0.01128462702035904
0	5518	-0.009820681065320969
0	5538	0.0036350858863443136
0	5550	0.0021802589762955904
0	5540	-0.0018155630677938461
0	5582	0.007622597273439169
0	5536	-0.008342603221535683
0	5596	0.010875475592911243
0	5610	0.0025358337443321943
0	5590	-0.003619822207838297
0	5654	0.011582452803850174
0	5628	-0.004702648147940636
0	5670	0.007592373993247747
0	5644	-0.004695513751357794
0	5650	0.0010822250042110682
0	5682	0.005766596645116806
0	5624	-0.010438162833452225
0	5594	-0.00539406668394804
0	5424	-0.03054550662636757
0	5344	-0.014370569959282875
0	5268	-0.01365138590335846
0	5234	-0.006124360486865044
0	5256	0.00399617338553071
0	5250	-0.001096424413844943
0	5324	0.013495768420398235
0	5318	-0.001090380479581654
0	5340	0.003996899351477623
0	5396	0.010178363882005215
0	5354	-0.007637289352715015
0	5406	0.00946624856442213
0	5416	0.0018215820891782641
0	5418	0.0003646618570201099
0	5452	0.006203020922839642
0	5428	-0.004380894359201193
0	5460	0.0058455318212509155
0	5436	-0.0043862853199243546
0	5466	0.005487737711519003
0	5482	0.00292804348282516
0	5460	-0.004028861410915852
0	5480	0.003665957832708955
0	5496	0.0029347387608140707
0	5494	-0.0003671970625873655
0	5494	0.0
0	5458	-0.006622110493481159
0	5500	0.007734616752713919
0	5464	-0.006635781843215227
0	5506	0.007752128876745701
0	5500	-0.0011082516284659505
0	5454	-0.008501515723764896
0	5546	0.01699988916516304
0	5534	-0.0022146215196698904
0	5582	0.008844014257192612
0	5578	-0.0007354292902164161
0	5496	-0.015046607702970505
0	5506	0.0018321954412385821
0	5444	-0.011346998624503613
0	5510	0.01206978503614664
0	5474	-0.0065767038613557816
0	5466	-0.0014607958728447556
0	5494	0.0051093022339046
0	5354	-0.02553284540772438
0	5370	0.0029191398061811924
0	5924	0.1011047288775444
0	6718	0.14448973536491394
0	5888	-0.1498681902885437
1	4768	-0.20171214640140533
0	4836	0.012296118773519993
0	5384	0.09946997463703156
0	5450	0.011987068690359592
0	5492	0.0076285963878035545
0	5570	0.014166363514959812
0	5532	-0.006898471154272556
0	5576	0.00798586755990982
0	5558	-0.003265325678512454
0	5578	0.003625947516411543
0	5592	0.002536967396736145
0	5568	-0.004345726687461138
0	5588	0.0036200841423124075
0	5542	-0.008321775123476982
0	5624	0.014826600439846516
0	5600	-0.0043374537490308285
0	5594	-0.0010839325841516256
0	5642	0.008670833893120289
0	5622	-0.0036114556714892387
0	5668	0.00830005295574665
0	5662	-0.00108156178612262
0	5678	0.0028803918976336718
0	5666	-0.0021581181790679693
0	5586	-0.014370913617312908
0	5558	-0.005026208236813545
0	5322	-0.042347539216279984
0	5226	-0.017229413613677025
0	5258	0.0057480898685753345
0	5236	-0.0039676339365541935
0	5268	0.005822981242090464
0	5300	0.0058449627831578255
0	5290	-0.0018206535605713725
0	5344	0.009804515168070793
0	5318	-0.004721835255622864
0	5376	0.010541749186813831
0	5354	-0.004001406487077475
0	5416	0.01129147782921791
0	5440	0.0043739746324718
0	5382	-0.010579179041087627
0	5448	0.012051272206008434
0	5452	0.0007309585344046354
0	5488	0.006584241520613432
0	5438	-0.009149243123829365
0	5454	0.002930438844487071
0	5474	0.003665017429739237
0	5452	-0.00403521629050374
0	5486	0.006241891533136368
0	5488	0.0003674129256978631
0	5466	-0.004045356996357441
0	5508	0.007730346173048019
0	5462	-0.00847488921135664
0	5508	0.008485310710966587
0	5450	-0.010710064321756363
0	5468	0.003328238381072879
0	5486	0.00333066051825881
0	5524	0.007034518755972385
0	5588	0.011832861229777336
0	5560	-0.005165352951735258
0	5552	-0.0014730795519426465
0	5494	-0.010659151710569859
0	5482	-0.0022022929042577744
0	5470	-0.0021998437587171793
0	5432	-0.006958517711609602
0	5494	0.011347275227308273
0	5482	-0.0021938912104815245
0	5466	-0.0029233000241219997
0	5346	-0.0219098050147295
0	5508	0.029590843245387077
0	6300	0.14460647106170654
0	6124	-0.031956229358911514
1	5188	-0.1692565381526947
0	4740	-0.08114080131053925
0	4952	0.03857116773724556
0	5444	0.0897788405418396
0	5566	0.02226358652114868
0	5562	-0.0007295453688129783
0	5622	0.010935867205262184
0	5616	-0.0010926838731393218
0	5604	-0.002183670876547694
0	5638	0.006181893404573202
0	5560	-0.014170825481414795
0	5598	0.006899640429764986
0	5576	-0.003992354031652212
0	5606	0.005439972970634699
0	5622	0.002898900769650936
0	5612	-0.0018103261245414615
0	5668	0.010132445953786373
0	5648	-0.0036169851664453745
0	5686	0.0068686287850141525
0	5698	0.002167290775105357
0	5670	-0.005050808656960726
0	5728	0.010450576432049274
0	5648	-0.014392285607755184
0	5668	0.0035934168845415115
0	5558	-0.019743219017982483
0	5462	-0.017222613096237183
0	5340	-0.02188759669661522
0	5236	-0.018658947199583054
0	5232	-0.0007188211311586201
0	5204	-0.005064145661890507
0	5240	0.00654735928401351
0	5270	0.005454413127154112
0	5266	-0.0007249266491271555
0	5312	0.00832087267190218
0	5316	0.0007241304265335202
0	5368	0.009427919052541256
0	5362	-0.0010891136480495334
0	5368	0.0010908297263085842
0	5416	0.00873977318406105
0	5386	-0.00546859810128808
0	5428	0.007667778059840202
0	5430	0.00036542583256959915
0	5412	-0.0032922010868787766
0	5438	0.00476016104221344
0	5410	-0.0051315887831151485
0	5446	0.006606312468647957
0	5422	-0.004408685490489006
0	5444	0.004047391004860401
0	5476	0.005894488655030727
0	5450	-0.004795455373823643
0	5484	0.006280556321144104
0	5432	-0.009616569615900517
0	5472	0.007410883903503418
0	5556	0.01557979080826044
0	5502	-0.010022520087659359
0	5506	0.0007426661904901266
0	5444	-0.01150819193571806
0	5452	0.001483973115682602
0	5450	-0.0003704984555952251
0	5440	-0.0018500018632039428
0	5486	0.008497641421854496
0	5430	-0.010329307988286018
0	5428	-0.0003685413394123316
0	5300	-0.023563196882605553
0	5578	0.05118009075522423
0	6208	0.11579747498035431
0	5862	-0.06327108293771744
0	5072	-0.14402391016483307
0	4730	-0.06246194988489151
0	4844	0.020907968282699585
0	5248	0.07434123754501343
0	5506	0.04752781614661217
0	5586	0.01473043393343687
0	5542	-0.008093095384538174
0	5602	0.011029005981981754
0	5560	-0.007711232639849186
0	5578	0.0033025098964571953
0	5596	0.003299362026154995
0	5584	-0.0021975338459014893
0	5606	0.004026157781481743
0	5584	-0.004022330045700073
0	5620	0.00657798582687974
0	5620	0.0
0	5606	-0.0025528811383992434
