0	4244	-0.11423736065626144
0	4774	0.09960408508777618
0	5314	0.10183427482843399
0	5450	0.025641348212957382
0	5428	-0.004145051818341017
0	5420	-0.0015063644386827946
0	5444	0.004516201559454203
0	5470	0.004889301024377346
0	5456	-0.002630359260365367
0	5478	0.004130421206355095
0	5492	0.0026258863508701324
0	5498	0.0011244236957281828
0	5522	0.004494887311011553
0	5518	-0.0007486898102797568
0	5504	-0.002619368489831686
0	5468	-0.006733754649758339
0	5496	0.0052382140420377254
0	5500	0.0007482976070605218
0	5528	0.005235536489635706
0	5530	0.00037354780943132937
0	5534	0.0007459903135895729
0	5578	0.008187975734472275
0	5554	-0.004454398062080145
0	5552	-0.000370347494026646
0	5510	-0.007759576663374901
0	5466	-0.00811498612165451
0	5442	-0.004420378245413303
0	5342	-0.018439751118421555
0	5276	-0.012231433764100075
0	5182	-0.017445744946599007
0	5134	-0.008890535682439804
0	5174	0.007368292193859816
0	5116	-0.010657845996320248
0	5166	0.00919895526021719
0	5160	-0.0011058006202802062
0	5160	0.0
0	5234	0.013682588003575802
0	5232	-0.00037027892540208995
0	5304	0.013349649496376514
0	5278	-0.004825239535421133
0	5290	0.002229792531579733
0	5320	0.005581464618444443
0	5328	0.0014900354435667396
0	5346	0.0033566225320100784
0	5330	-0.0029868579003959894
0	5370	0.0074752382934093475
0	5358	-0.002243941416963935
0	5378	0.003743122098967433
0	5370	-0.0014983891742303967
0	5342	-0.005249540787190199
0	5356	0.0026278579607605934
0	5320	-0.006764882709830999
0	5366	0.008658008649945259
0	5312	-0.010175751522183418
0	5340	0.00528428191319108
0	5332	-0.0015114110428839922
0	5338	0.0011345157399773598
0	5336	-0.00037841996527276933
0	5332	-0.000756868626922369
0	5332	0.0
0	5318	-0.0026456026826053858
0	5352	0.0064175971783697605
0	5326	-0.004902083892375231
0	5334	0.0015063454629853368
0	5374	0.0075237937271595
0	5426	0.009767825715243816
0	5486	0.011251827701926231
0	5438	-0.0089873056858778
0	5482	0.008227785117924213
0	5510	0.005230060778558254
0	5540	0.005595553666353226
0	5460	-0.01489831879734993
0	5342	-0.021955939009785652
0	5274	-0.012651477009057999
0	5178	-0.0178688857704401
0	5182	0.0007452397840097547
0	5182	0.0
0	5208	0.004855033941566944
0	5254	0.00859877374023199
0	5230	-0.004489561542868614
0	5702	0.08835642039775848
0	6208	0.09451702237129211
0	5528	-0.126320481300354
1	4680	-0.15737120807170868
0	4778	0.018258146941661835
0	5232	0.08487990498542786
0	5498	0.049762412905693054
0	5424	-0.013829879462718964
0	5466	0.007845090702176094
0	5442	-0.004479171708226204
0	5470	0.005222127307206392
0	5476	0.0011179707944393158
0	5482	0.001117110368795693
0	5502	0.0037200995720922947
0	5480	-0.004087851848453283
0	5460	-0.003713790327310562
0	5480	0.0037130089476704597
0	5448	-0.005941035225987434
0	5512	0.011881334707140923
0	5488	-0.004454673733562231
0	5526	0.007054193411022425
0	5542	0.0029704440385103226
0	5560	0.0033400547690689564
0	5586	0.0048180269077420235
0	5546	-0.007398091722279787
0	5558	0.0022144033573567867
0	5566	0.0014728624373674393
0	5514	-0.009551098570227623
0	5490	-0.004399955738335848
0	5420	-0.012814722955226898
0	5390	-0.0054856641218066216
0	5300	-0.016488349065184593
0	5220	-0.014738031663000584
0	5164	-0.010336171835660934
0	5142	-0.004048583097755909
0	5126	-0.0029378642793744802
0	5110	-0.002939771395176649
0	5152	0.007735281717032194
0	5172	0.003689628327265382
0	5206	0.006283728871494532
0	5242	0.006663047708570957
0	5244	0.0003706907154992223
0	5290	0.008538124151527882
0	5310	0.0037166429683566093
0	5322	0.002232641214504838
0	5342	0.0037247184664011
0	5364	0.004100193735212088
0	5374	0.0018650684505701065
0	5328	-0.00858326442539692
0	5366	0.007098646368831396
0	5344	-0.004112866707146168
0	5360	0.002994572278112173
0	5368	0.0014989882474765182
0	5350	-0.0033767728600651026
0	5352	0.0003757515223696828
0	5326	-0.004890711046755314
0	5334	0.0015070264926180243
0	5300	-0.006414206698536873
0	5344	0.0083119235932827
0	5292	-0.009832222014665604
0	5302	0.0018923385068774223
0	5324	0.004165457095950842
0	5298	-0.004922067280858755
0	5322	0.004541211761534214
0	5318	-0.0007561150705441833
0	5350	0.006042219698429108
0	5316	-0.006410820409655571
0	5358	0.007909009233117104
0	5340	-0.003385197836905718
0	5346	0.0011272121919319034
0	5410	0.012013064697384834
0	5396	-0.0026250984519720078
0	5426	0.0056198714300990105
0	5450	0.004492082633078098
0	5486	0.006732244044542313
0	5486	0.0
0	5526	0.0074659367091953754
0	5412	-0.021256493404507637
0	5334	-0.014540483243763447
0	5216	-0.02199632115662098
0	5172	-0.008209669962525368
0	5182	0.0018678322667255998
0	5182	0.0
0	5206	0.00449297996237874
0	5246	0.007495034486055374
0	5626	0.07124999910593033
0	6352	0.13587023317813873
0	5762	-0.10972117632627487
0	5182	-0.10755347460508347
1	4026	-0.21458005905151367
0	4942	0.17137296497821808
0	5430	0.09150457382202148
0	5440	0.0018738522194325924
0	5418	-0.004118821583688259
0	5458	0.007484283298254013
0	5458	0.0
0	5458	0.0
0	5488	0.005599591881036758
0	5454	-0.00634107505902648
0	5522	0.012673169374465942
0	5542	0.0037233317270874977
0	5492	-0.009300710633397102
0	5518	0.004833492450416088
0	5446	-0.013377428986132145
0	5530	0.015607386827468872
0	5484	-0.008544574491679668
0	5532	0.008916188031435013
0	5554	0.0040864343754947186
0	5542	-0.002227006247267127
0	5592	0.009267267771065235
0	5552	-0.007396631874144077
0	5568	0.0029517391230911016
0	5510	-0.010674715973436832
0	5456	-0.009918569587171078
0	5442	-0.0025675510987639427
0	5364	-0.014287807047367096
0	5316	-0.00880658533424139
0	5238	-0.014401950873434544
0	5232	-0.0011114266235381365
0	5138	-0.017406977713108063
0	5176	0.006988890934735537
0	5106	-0.01285583060234785
0	5134	0.005152552388608456
0	5112	-0.004056047182530165
0	5162	0.009235657751560211
0	5182	0.0037010081578046083
0	5206	0.004448783118277788
0	5260	0.010025372728705406
0	5292	0.005949356127530336
0	5294	0.00037220842204988003
0	5320	0.004845563322305679
0	5346	0.0048522548750042915
0	5358	0.0022415381390601397
0	5338	-0.0037396226543933153
0	5368	0.00561321247369051
0	5332	-0.006742667406797409
0	5374	0.007873916998505592
0	5352	-0.004128509201109409
0	5358	0.0011273815762251616
0	5356	-0.00037622745730914176
0	5344	-0.0022607101127505302
0	5346	0.0003772778145503253
0	5316	-0.0056670778430998325
0	5330	0.0026478709187358618
0	5294	-0.00681422371417284
0	5316	0.004168140236288309
0	5316	0.0
0	5328	0.0022742205765098333
0	5316	-0.0022729281336069107
0	5314	-0.00037862054887227714
0	5344	0.005673007573932409
0	5350	0.0011334014125168324
0	5336	-0.0026405462995171547
0	5336	0.0
0	5346	0.0018810664769262075
0	5388	0.00789137464016676
0	5450	0.011634161695837975
0	5468	0.0033725127577781677
0	5450	-0.003368137404322624
0	5498	0.008972857147455215
0	5498	0.0
0	5574	0.014173286966979504
0	5430	-0.02681664191186428
0	5356	-0.01377461664378643
0	5236	-0.02233472466468811
0	5162	-0.013784367591142654
0	5182	0.003729441436007619
0	5206	0.0044806767255067825
0	5206	0.0
0	5268	0.011596588417887688
0	5430	0.03031739592552185
0	6072	0.1200822964310646
0	6026	-0.008565257303416729
0	5374	-0.12087056040763855
1	4332	-0.19311794638633728
0	4758	0.07942426949739456
0	5286	0.09878391027450562
0	5512	0.04229041934013367
0	5444	-0.01270996406674385
0	5476	0.005976393353193998
0	5464	-0.002238889690488577
0	5502	0.007084529846906662
0	5498	-0.0007450361736118793
0	5502	0.0007442876230925322
0	5500	-0.0003717610379680991
0	5494	-0.0011142200091853738
0	5490	-0.000742326199542731
0	5480	-0.0018553565023466945
0	5482	0.00037104374496266246
0	5496	0.002596792299300432
0	5538	0.007790473289787769
0	5518	-0.0037088319659233093
0	5524	0.0011130349012091756
0	5522	-0.0003707961004693061
0	5558	0.006667489651590586
0	5550	-0.0014787247637286782
0	5580	0.005531993228942156
0	5568	-0.002207397250458598
0	5516	-0.00954420305788517
0	5512	-0.0007327796774916351
0	5388	-0.022682374343276024
0	5368	-0.0036593845579773188
0	5322	-0.008452878333628178
0	5258	-0.011811459437012672
0	5224	-0.00627931859344244
0	5164	-0.011020632460713387
0	5166	0.0003664435353130102
0	5142	-0.004400547593832016
0	5106	-0.006615782622247934
0	5182	0.013995629735291004
0	5162	-0.003689719131216407
0	5210	0.008871803060173988
0	5212	0.00037032467662356794
0	5262	0.009274487383663654
0	5300	0.00705908564850688
0	5310	0.0018599575851112604
0	5334	0.004468996077775955
0	5346	0.002236663829535246
0	5342	-0.000746175879612565
0	5348	0.0011202390305697918
0	5360	0.002242543501779437
0	5352	-0.0014966885792091489
0	5314	-0.007116637658327818
0	5324	0.0018752578180283308
0	5298	-0.004881712142378092
0	5314	0.0030090271029621363
0	5310	-0.0007533713360317051
0	5316	0.0011319757904857397
0	5328	0.0022675450891256332
0	5286	-0.007945816963911057
0	5314	0.005304771941155195
0	5270	-0.008339967578649521
0	5330	0.011379729025065899
0	5316	-0.0026551359333097935
0	5322	0.0011374983005225658
0	5336	0.0026525198481976986
0	5362	0.004920762963593006
0	5472	0.020792903378605843
0	5418	-0.010186244733631611
0	5478	0.011295889504253864
0	5444	-0.0063891359604895115
0	5494	0.009379221126437187
0	5486	-0.0014980151318013668
0	5374	-0.020936405286192894
0	5332	-0.007845676504075527
0	5224	-0.020170576870441437
0	5182	-0.007848315872251987
0	5158	-0.00448900181800127
0	5208	0.009363061748445034
0	5240	0.005997376516461372
0	5226	-0.0026256234850734472
0	5524	0.05593512952327728
0	6116	0.11099999397993088
0	5858	-0.0481337271630764
1	5006	-0.1584271341562271
0	4256	-0.1397133767604828
0	4980	0.13576187193393707
0	5306	0.06125670298933983
0	5500	0.036455657333135605
0	5494	-0.0011262811021879315
0	5436	-0.01087323296815157
0	5474	0.007118415553122759
0	5448	-0.004864298272877932
0	5482	0.006356328260153532
0	5470	-0.002241091802716255
0	5462	-0.0014926857547834516
0	5474	0.0022372754756361246
0	5478	0.0007452397840097547
0	5468	-0.0018630300182849169
0	5464	-0.0007449807017110288
0	5468	0.0007450454868376255
0	5504	0.006704410072416067
0	5474	-0.005586661864072084
0	5506	0.00595954991877079
0	5506	0.0
0	5532	0.004832953214645386
0	5564	0.005936920177191496
0	5522	-0.007773842662572861
0	5536	0.0025854746345430613
0	5454	-0.015112979337573051
0	5346	-0.01987876556813717
0	5332	-0.002574981190264225
0	5278	-0.009943774901330471
0	5252	-0.004812497645616531
0	5210	-0.007803210522979498
0	5202	-0.0014844503020867705
0	5182	-0.0036895377561450005
0	5152	-0.005527440458536148
0	5212	0.011065347120165825
0	5182	-0.005542485974729061
0	5230	0.008885049261152744
0	5282	0.009637719951570034
0	5274	-0.0014844870893284678
0	5296	0.004086737986654043
0	5342	0.008554849773645401
0	5348	0.0011167362099513412
0	5372	0.004470106214284897
0	5340	-0.005963918287307024
0	5412	0.013430329971015453
0	5380	-0.005971114616841078
0	5384	0.0007467794930562377
0	5380	-0.000747170124668628
0	5350	-0.005608105566352606
0	5348	-0.0003741628024727106
0	5324	-0.004494382068514824
0	5348	0.004499494098126888
0	5286	-0.011637073941528797
0	5334	0.009025044739246368
0	5288	-0.00865920353680849
0	5306	0.003393665188923478
0	5300	-0.001132274861447513
0	5330	0.005663013085722923
0	5388	0.01094862911850214
0	5368	-0.0037727782037109137
0	5446	0.014703109860420227
0	5430	-0.0030115568079054356
0	5486	0.01052539236843586
0	5428	-0.010880576446652412
0	5348	-0.014981835149228573
0	5280	-0.012723756954073906
0	5212	-0.012715984135866165
0	5214	0.0003740415268111974
0	5206	-0.0014968005707487464
0	5222	0.0029948712326586246
0	5258	0.006741573102772236
0	5310	0.009742936119437218
0	5768	0.08583316206932068
0	6074	0.057205528020858765
0	5518	-0.10346880555152893
1	4708	-0.15063787996768951
0	4454	-0.047434668987989426
0	5016	0.10556501895189285
0	5448	0.08133142441511154
0	5464	0.003010423621162772
0	5456	-0.001504117506556213
0	5450	-0.0011271557305008173
0	5440	-0.0018773936899378896
0	5452	0.0022507035173475742
0	5408	-0.008246495388448238
0	5486	0.014607835561037064
0	5444	-0.007856928743422031
0	5456	0.0022428228985518217
0	5508	0.009711275808513165
0	5442	-0.012316649779677391
0	5476	0.006342021282762289
0	5478	0.0003729905001819134
0	5492	0.002610154915601015
0	5494	0.0003728653537109494
0	5494	0.0
0	5540	0.008564619347453117
0	5496	-0.008179046213626862
0	5550	0.010020287707448006
0	5498	-0.009629154577851295
0	5468	-0.00554528646171093
0	5436	-0.005906020291149616
0	5340	-0.017698680981993675
0	5308	-0.005898472387343645
0	5254	-0.009981885552406311
0	5254	0.0
0	5182	-0.013398673385381699
0	5248	0.012246109545230865
0	5182	-0.012186265550553799
0	5208	0.0047957501374185085
0	5182	-0.004802837036550045
0	5238	0.010362566448748112
0	5262	0.0044470797292888165
0	5248	-0.0025971457362174988
0	5264	0.0029716945718973875
0	5248	-0.0029751574620604515
0	5282	0.006328485906124115
0	5322	0.00745471240952611
0	5340	0.0033571652602404356
0	5330	-0.001866437727585435
0	5348	0.003363312454894185
0	5354	0.0011217609280720353
0	5370	0.002993638627231121
0	5408	0.007114683277904987
0	5346	-0.011614256538450718
0	5354	0.0014999998966231942
0	5354	0.0
0	5328	-0.004884953144937754
0	5362	0.006394743919372559
0	5302	-0.011298158206045628
0	5324	0.004147760570049286
0	5348	0.0045289285480976105
0	5348	0.0
0	5408	0.011328021995723248
0	5400	-0.001509453053586185
0	5472	0.013572613708674908
0	5452	-0.00376501283608377
0	5468	0.003006915794685483
0	5462	-0.0011260416358709335
0	5362	-0.01873454451560974
0	5330	-0.005989294033497572
0	5220	-0.0205692071467638
0	5224	0.0007480550557374954
0	5208	-0.0029929294250905514
0	5210	0.0003742094850167632
0	5248	0.0071123759262263775
0	5248	0.0
0	5498	0.04680187255144119
0	5958	0.08602096885442734
0	5856	-0.01900101825594902
0	5420	-0.0809556245803833
0	4660	-0.14105243980884552
0	4486	-0.032432835549116135
0	4998	0.09596161544322968
0	5308	0.058250971138477325
0	5454	0.027440859004855156
0	5416	-0.007137669250369072
0	5382	-0.006383857689797878
0	5382	0.0
0	5404	0.004128819331526756
0	5418	0.0026257550343871117
0	5400	-0.0033739879727363586
0	5436	0.00674578407779336
0	5454	0.0033710389398038387
0	5408	-0.008612404577434063
0	5452	0.00823754072189331
0	5458	0.0011234412668272853
0	5448	-0.0018723319517448545
0	5470	0.004119644407182932
0	5448	-0.004119439050555229
0	5508	0.011228805407881737
0	5516	0.001495513366535306
0	5520	0.0007463800138793886
0	5550	0.005587562918663025
0	5526	-0.004460579715669155
0	5514	-0.0022259321995079517
0	5442	-0.013333662413060665
0	5428	-0.0025895554572343826
0	5384	-0.008142117410898209
0	5300	-0.015599272213876247
0	5284	-0.002981551457196474
0	5216	-0.012682308442890644
0	5228	0.0022303450386971235
0	5182	-0.008510532788932323
0	5212	0.00554405665025115
0	5182	-0.005547337234020233
0	5226	0.008149757981300354
0	5246	0.0037087860982865095
0	5216	-0.0055678593926131725
0	5268	0.009660878218710423
0	5252	-0.0029750836547464132
0	5264	0.0022336107213050127
0	5258	-0.00111774867400527
0	5322	0.011935845017433167
0	5354	0.005972823593765497
0	5320	-0.006348258350044489
0	5386	0.012333221733570099
0	5376	-0.0018695082981139421
0	5390	0.002618486527353525
0	5384	-0.0011227685026824474
0	5386	0.0003744056448340416
0	5368	-0.003372217994183302
0	5350	-0.00337533769197762
0	5354	0.0007508728886023164
0	5302	-0.009773333556950092
0	5346	0.008281365968286991
0	5324	-0.004145051818341017
0	5358	0.006410739850252867
0	5318	-0.007545366417616606
0	5358	0.007548498921096325
0	5348	-0.0018864364828914404
0	5308	-0.00754271075129509
0	5446	0.026007311418652534
0	5414	-0.0060224332846701145
0	5436	0.0041344054043293
0	5446	0.0018766421126201749
0	5474	0.0052459342405200005
0	5478	0.0007482602959498763
0	5398	-0.014943587593734264
0	5348	-0.009329170919954777
0	5260	-0.016411174088716507
0	5250	-0.0018648133845999837
0	5182	-0.01268183533102274
0	5236	0.010075628757476807
0	5218	-0.0033603403717279434
0	5226	0.0014947496820241213
0	5284	0.010843283496797085
0	5658	0.06996496021747589
0	6098	0.08216722309589386
0	5460	-0.11861970275640488
0	4936	-0.0973784551024437
0	4318	-0.11516815423965454
0	4806	0.09153889864683151
0	5218	0.0775466188788414
0	5472	0.047848694026470184
0	5454	-0.0033872362691909075
0	5444	-0.0018805240979418159
0	5446	0.0003758221282623708
0	5458	0.002253690268844366
0	5442	-0.003002289216965437
0	5466	0.004501068964600563
0	5428	-0.007121439091861248
0	5460	0.005992509424686432
0	5466	0.001123497262597084
0	5446	-0.003743775887414813
0	5518	0.013476752676069736
0	5448	-0.013096516020596027
0	5488	0.0074849361553788185
0	5446	-0.007858693599700928
0	5496	0.009352787397801876
0	5526	0.005606498569250107
0	5540	0.002612037817016244
0	5570	0.005587147083133459
0	5548	-0.004087395966053009
0	5528	-0.0037086487282067537
0	5504	-0.004441867116838694
0	5482	-0.004064740147441626
0	5428	-0.009964938275516033
0	5326	-0.01884932816028595
0	5308	-0.003342245938256383
0	5228	-0.014868414960801601
0	5228	0.0
0	5168	-0.011068885214626789
0	5174	0.0011044300626963377
0	5182	0.001472970936447382
0	5162	-0.0036889933981001377
0	5182	0.0036956281401216984
0	5182	0.0
0	5236	0.010010628961026669
0	5240	0.0007425466901622713
0	5246	0.0011152139632031322
0	5310	0.011911852285265923
0	5302	-0.0014900723472237587
0	5342	0.007457677740603685
0	5358	0.002985371509566903
0	5352	-0.0011201275046914816
0	5368	0.0029900954104959965
0	5374	0.0011218447471037507
0	5360	-0.002619499107822776
0	5366	0.001123244990594685
0	5380	0.002623032545670867
0	5346	-0.00637603597715497
0	5356	0.00187758170068264
0	5380	0.004512239247560501
0	5334	-0.008657574653625488
0	5356	0.004145624581724405
0	5358	0.00037722563138231635
0	5340	-0.0033976794220507145
0	5326	-0.002644103718921542
0	5322	-0.0007554581970907748
0	5368	0.008687003515660763
0	5322	-0.008679354563355446
0	5348	0.0049028233624994755
0	5342	-0.0011301421327516437
0	5322	-0.0037631711456924677
0	5368	0.00864769984036684
0	5412	0.008261049166321754
0	5446	0.006374362390488386
0	5396	-0.009358623065054417
0	5464	0.012715033255517483
0	5476	0.002240701112896204
0	5486	0.001864581718109548
0	5452	-0.006332650315016508
0	5342	-0.020468924194574356
0	5314	-0.005210271570831537
0	5182	-0.02456941455602646
0	5182	0.0
0	5182	0.0
0	5228	0.00859127938747406
0	5242	0.002616887679323554
0	5250	0.0014965205918997526
0	5480	0.04305987432599068
0	6068	0.10999152064323425
0	5668	-0.07449344545602798
0	5206	-0.08588637411594391
0	4412	-0.1477227658033371
0	4598	0.03480886295437813
0	5078	0.09025723487138748
0	5524	0.08400195837020874
0	5452	-0.013544018380343914
0	5478	0.00488691171631217
0	5458	-0.0037565738894045353
0	5484	0.004879391752183437
0	5478	-0.0011250561801716685
0	5472	-0.001124100643210113
0	5496	0.0044921948574483395
0	5462	-0.00635886425152421
0	5510	0.008974422700703144
0	5470	-0.007475704420357943
0	5462	-0.001494451891630888
0	5500	0.007098734378814697
0	5464	-0.006724112201482058
0	5502	0.007098646368831396
0	5486	-0.0029879736248403788
0	5486	0.0
0	5524	0.007082504685968161
0	5520	-0.0007439461187459528
0	5578	0.01076466217637062
0	5568	-0.0018514404073357582
0	5536	-0.005912203807383776
0	5498	-0.00700805289670825
0	5406	-0.01694103702902794
0	5380	-0.00478986045345664
0	5272	-0.01998075842857361
0	5228	-0.008160237222909927
0	5210	-0.0033378249499946833
0	5130	-0.014761962927877903
0	5166	0.006621216889470816
0	5140	-0.004779411945492029
0	5166	0.0047906837426126
0	5152	-0.0025841384194791317
0	5174	0.004068950191140175
0	5248	0.013710473664104939
0	5198	-0.00927735585719347
0	5278	0.01486952044069767
0	5266	-0.0022331122308969498
0	5290	0.0044726054184138775
0	5324	0.006342967972159386
0	5306	-0.0033619303721934557
0	5354	0.00897431094199419
0	5338	-0.0029934518970549107
0	5364	0.004869278520345688
0	5316	-0.008995052427053452
0	5346	0.00562844704836607
0	5380	0.006384497042745352
0	5348	-0.006012927740812302
0	5400	0.009781790897250175
0	5364	-0.006777108646929264
0	5380	0.003016098402440548
0	5358	-0.004152039997279644
0	5360	0.000377881369786337
0	5356	-0.0007564200786873698
0	5350	-0.0011349879205226898
0	5348	-0.0003784008731599897
0	5314	-0.006429733242839575
0	5352	0.007182279136031866
0	5336	-0.003021414391696453
0	5326	-0.0018859384581446648
0	5330	0.0007536173798143864
0	5326	-0.0007527191773988307
0	5354	0.0052637518383562565
0	5338	-0.003004055470228195
0	5344	0.0011253657285124063
0	5340	-0.0007497938349843025
0	5350	0.0018728228751569986
0	5438	0.01647343672811985
0	5448	0.001869974541477859
0	5462	0.0026153884828090668
0	5452	-0.0018665306270122528
0	5482	0.005594510119408369
0	5514	0.005962733179330826
0	5448	-0.01228470727801323
0	5378	-0.013022447936236858
0	5310	-0.01264551654458046
0	5236	-0.013764368370175362
0	5166	-0.013031984679400921
0	5208	0.007828031666576862
0	5206	-0.00037320860428735614
0	5234	0.005230060778558254
0	5264	0.005608734674751759
0	5478	0.04003242775797844
0	6242	0.14281441271305084
0	5680	-0.10447780042886734
0	5172	-0.0942462757229805
1	4256	-0.1701253056526184
0	4808	0.10319685935974121
0	5334	0.09867063164710999
0	5430	0.018008554354310036
0	5414	-0.0029994752258062363
0	5446	0.005995802581310272
0	5434	-0.0022467421367764473
0	5464	0.005614052526652813
0	5510	0.008601454086601734
0	5492	-0.0033623070921748877
0	5518	0.004852074198424816
0	5474	-0.00820263009518385
0	5512	0.007082504685968161
0	5498	-0.0026083067059516907
0	5490	-0.001490127993747592
0	5522	0.0059591056779026985
0	5512	-0.0018617582973092794
0	5512	0.0
0	5550	0.007071960251778364
0	5558	0.0014872468309476972
0	5570	0.002227446995675564
0	5578	0.0014819022035226226
0	5620	0.007760244887322187
0	5586	-0.0062662032432854176
0	5552	-0.006251608952879906
0	5518	-0.006239447742700577
0	5478	-0.007329139858484268
0	5350	-0.0234532468020916
0	5244	-0.01952861249446869
0	5218	-0.00480289664119482
0	5132	-0.015882005915045738
0	5134	0.000367367931175977
0	5098	-0.006599450018256903
0	5134	0.00660898070782423
0	5166	0.0058853100053966045
0	5152	-0.0025787437334656715
0	5182	0.005535872187465429
0	5182	0.0
0	5216	0.006294664461165667
0	5232	0.0029675790574401617
0	5244	0.0022292679641395807
0	5264	0.0037217612843960524
0	5254	-0.001863307785242796
0	5314	0.011197789572179317
0	5290	-0.00448424881324172
0	5338	0.008979683741927147
0	5318	-0.0037458327133208513
0	5364	0.008625863119959831
0	5354	-0.001876923837698996
0	5344	-0.0018792281625792384
0	5350	0.0011290503898635507
0	5314	-0.006783663760870695
0	5344	0.005662442650645971
0	5324	-0.0037815284449607134
0	5332	0.0015151132829487324
0	5314	-0.0034137461334466934
0	5312	-0.0003797949175350368
0	5330	0.0034217494539916515
0	5298	-0.006083881948143244
0	5306	0.0015204499941319227
0	5310	0.000759801478125155
0	5314	0.0007589460583403707
0	5350	0.006822747178375721
0	5330	-0.0037843906320631504
0	5340	0.0018898590933531523
0	5338	-0.00037755793891847134
0	5354	0.0030169326346367598
0	5370	0.003013674635440111
0	5352	-0.003386386903002858
0	5390	0.007142947055399418
0	5362	-0.005258018150925636
0	5460	0.01838948205113411
0	5434	-0.004872868303209543
0	5450	0.0029953198973089457
0	5482	0.005985559429973364
0	5502	0.003736501792445779
0	5450	-0.009704993106424809
0	5370	-0.01491850707679987
0	5302	-0.012680258601903915
0	5216	-0.016041982918977737
0	5166	-0.00933416374027729
0	5182	0.002990356180816889
0	5210	0.0052374303340911865
0	5238	0.005241809878498316
0	5286	0.008990785107016563
0	5770	0.09068312495946884
0	6172	0.07510555535554886
0	5396	-0.14420753717422485
1	4478	-0.17052631080150604
0	4622	0.026885734871029854
0	5182	0.10500261932611465
0	5430	0.046538397669792175
0	5458	0.0052505251951515675
0	5448	-0.0018739225342869759
0	5450	0.0003745084395632148
0	5482	0.005988024175167084
0	5474	-0.001495662610977888
0	5534	0.011209087446331978
0	5476	-0.010824396274983883
0	5520	0.00820528157055378
0	5508	-0.002235997002571821
0	5468	-0.007446570787578821
0	5508	0.007446201052516699
0	5502	-0.001116417464800179
0	5532	0.005580287892371416
0	5500	-0.00595046253874898
0	5530	0.005578627809882164
0	5524	-0.0011151725193485618
0	5560	0.00668465718626976
0	5598	0.007044777274131775
0	5572	-0.004808759316802025
0	5580	0.001475923927500844
0	5540	-0.007361601572483778
0	5486	-0.009918083436787128
0	5434	-0.009536268189549446
0	5394	-0.007328960578888655
0	5318	-0.013957075774669647
0	5254	-0.011815094389021397
0	5234	-0.0036954458337277174
0	5158	-0.013977611437439919
0	5174	0.002933017211034894
0	5128	-0.008432836271822453
0	5132	0.0007346459315158427
0	5162	0.005520862992852926
0	5176	0.0025809307117015123
0	5208	0.005909219849854708
0	5248	0.007399003487080336
0	5234	-0.002593264915049076
0	5302	0.012619232758879662
0	5292	-0.0018577692098915577
0	5338	0.008557820692658424
0	5330	-0.0014898874796926975
0	5334	0.0007455824525095522
0	5372	0.007090698927640915
0	5358	-0.0026144767180085182
0	5366	0.0014956066152080894
0	5378	0.0022452848497778177
0	5332	-0.008615092374384403
0	5378	0.00862543098628521
0	5332	-0.008635254576802254
0	5354	0.004136790055781603
0	5334	-0.003765863599255681
0	5338	0.0007543374667875469
0	5348	0.0018882413860410452
0	5330	-0.0034017888829112053
0	5338	0.0015128974337130785
0	5348	0.0018917896086350083
0	5308	-0.007565727457404137
0	5330	0.00415973411872983
0	5326	-0.0007558579090982676
0	5354	0.005285412073135376
0	5362	0.0015084093902260065
0	5326	-0.006777874194085598
0	5372	0.00865008495748043
0	5336	-0.006760732736438513
0	5358	0.00412742467597127
0	5318	-0.0074973758310079575
0	5320	0.0003747049195226282
0	5372	0.009737098589539528
0	5414	0.007861144840717316
0	5442	0.005236777476966381
0	5442	0.0
0	5476	0.006350392010062933
0	5558	0.015302123501896858
0	5434	-0.023113057017326355
0	5364	-0.013041533529758453
0	5274	-0.016767894849181175
0	5182	-0.017151594161987305
0	5182	0.0
0	5180	-0.0003736641665454954
0	5214	0.006358309183269739
0	5222	0.0014973796205595136
0	5260	0.007117527071386576
0	5968	0.13267536461353302
0	5844	-0.023147283121943474
0	5310	-0.09936486184597015
1	4348	-0.1790366917848587
0	4784	0.08164998143911362
0	5302	0.09732452034950256
0	5484	0.03420109674334526
0	5448	-0.006758363451808691
0	5470	0.004127683117985725
0	5454	-0.002999924821779132
0	5484	0.0056203631684184074
0	5480	-0.0007488579722121358
0	5472	-0.0014963713474571705
0	5494	0.004112097900360823
0	5466	-0.005227847024798393
0	5500	0.006342337001115084
0	5440	-0.011183458380401134
0	5520	0.014908869750797749
0	5488	-0.0059606595896184444
0	5464	-0.004469218198210001
0	5526	0.011546340771019459
0	5524	-0.00037253659684211016
0	5562	0.007074241992086172
0	5534	-0.005206202622503042
0	5556	0.004084006883203983
0	5546	-0.0018520804587751627
0	5532	-0.0025870988611131907
0	5494	-0.007006932981312275
0	5450	-0.00809935200959444
0	5394	-0.010293865576386452
0	5314	-0.014693457633256912
0	5296	-0.003319318639114499
0	5268	-0.00518083618953824
0	5182	-0.015916690230369568
0	5178	-0.0007365216733887792
0	5152	-0.0047758412547409534
0	5152	0.0
0	5162	0.0018422992434352636
0	5154	-0.001476432429626584
0	5220	0.01220429316163063
0	5216	-0.0007407224620692432
0	5264	0.008903398178517818
0	5258	-0.0011144130257889628
0	5308	0.009299095720052719
0	5318	0.0018619663314893842
0	5338	0.003727356204763055
0	5354	0.0029848888516426086
0	5372	0.0033597969450056553
0	5370	-0.00037365485331974924
0	5334	-0.006730732973664999
0	5382	0.008981588296592236
0	5350	-0.005993107799440622
0	5348	-0.00037497657467611134
0	5334	-0.0026283510960638523
0	5320	-0.0026316449511796236
0	5346	0.004894578363746405
0	5312	-0.0064086453057825565
0	5344	0.006040015257894993
0	5332	-0.0022671453189104795
0	5346	0.0026469696313142776
0	5306	-0.00756505923345685
0	5338	0.006052352488040924
0	5314	-0.004538062959909439
0	5348	0.006427059415727854
0	5342	-0.0011330018751323223
0	5322	-0.0037727782037109137
0	5354	0.006029999349266291
0	5324	-0.005645960569381714
0	5336	0.0022560914512723684
0	5292	-0.00826291088014841
0	5362	0.013139617629349232
0	5364	0.00037507503293454647
0	5420	0.01049553882330656
0	5450	0.005616925656795502
0	5434	-0.0029930411837995052
0	5500	0.01233737077564001
0	5490	-0.00186741363722831
0	5470	-0.0037316682282835245
0	5352	-0.022003432735800743
0	5264	-0.016411174088716507
0	5240	-0.004477723501622677
0	5182	-0.010830729268491268
0	5212	0.0056079658679664135
0	5220	0.0014967259485274553
0	5240	0.003744476707652211
0	5304	0.011988312005996704
0	5848	0.10192737728357315
0	6018	0.0317460335791111
0	5446	-0.10636978596448898
1	4434	-0.18805982172489166
0	4854	0.07849195599555969
0	5182	0.061471570283174515
0	5456	0.05140134319663048
0	5484	0.005248032044619322
0	5424	-0.011236235499382019
0	5470	0.008610039949417114
0	5466	-0.0007480084314011037
0	5458	-0.001494973199442029
0	5482	0.004481179174035788
0	5466	-0.002984740538522601
0	5460	-0.0011180680012330413
0	5482	0.00409708870574832
0	5442	-0.0074437991715967655
0	5468	0.004837809130549431
0	5426	-0.007814050652086735
0	5484	0.010791366919875145
0	5442	-0.00781521387398243
0	5464	0.00409490242600441
0	5530	0.012285164557397366
0	5532	0.00037186703411862254
0	5578	0.008538758382201195
0	5530	-0.008891412988305092
0	5488	-0.007763305213302374
0	5462	-0.004797697067260742
0	5398	-0.01179216243326664
0	5404	0.0011044435668736696
0	5308	-0.017660262063145638
0	5250	-0.010705189779400826
0	5230	-0.003708969336003065
0	5182	-0.008913428522646427
0	5236	0.009981391951441765
0	5174	-0.011433208361268044
0	5176	0.000368831300875172
0	5214	0.007019876968115568
0	5210	-0.0007401650073006749
0	5250	0.007411432918161154
0	5232	-0.0033396827057003975
0	5294	0.01152002438902855
0	5300	0.0011159745045006275
0	5326	0.004841352812945843
0	5364	0.007081977091729641
0	5366	0.0003729580494109541
0	5374	0.0014929086901247501
0	5342	-0.00597416190430522
0	5356	0.00261574680916965
0	5348	-0.0014953643549233675
0	5358	0.0018707906128838658
0	5380	0.004117896780371666
0	5318	-0.01161106675863266
0	5366	0.009001125581562519
0	5322	-0.008259601891040802
0	5328	0.0011281163897365332
0	5328	0.0
0	5318	-0.0018844695296138525
0	5322	0.0007544702384620905
0	5302	-0.0037741544656455517
0	5326	0.004531893413513899
0	5326	0.0
0	5294	-0.006038951687514782
0	5330	0.006791085936129093
0	5312	-0.0033923860173672438
0	5318	0.0011302557541057467
0	5406	0.01656210795044899
0	5396	-0.0018793459748849273
0	5442	0.008635145612061024
0	5438	-0.0007497938349843025
0	5472	0.0063657695427536964
0	5482	0.001869484898634255
0	5428	-0.010083405300974846
0	5334	-0.01753862202167511
0	5250	-0.01567203179001808
0	5262	0.0022404498886317015
0	5182	-0.014946007169783115
0	5230	0.008978339843451977
0	5258	0.005241024773567915
0	5238	-0.003745879279449582
0	5298	0.011245361529290676
0	5690	0.0734972432255745
0	6098	0.07634920626878738
0	5446	-0.12141828238964081
0	4718	-0.13550405204296112
0	4270	-0.0837007686495781
0	4852	0.10945747792720795
0	5230	0.07130371779203415
0	5486	0.0483170785009861
0	5514	0.005279234144836664
0	5422	-0.017322972416877747
0	5442	0.0037635958287864923
0	5458	0.003008687635883689
0	5448	-0.0018784987041726708
0	5518	0.013139781542122364
0	5438	-0.014997562393546104
0	5500	0.011614401824772358
0	5412	-0.016475286334753036
0	5456	0.008236820809543133
0	5460	0.0007487364928238094
0	5454	-0.0011229505762457848
0	5480	0.004866665694862604
0	5444	-0.006738544441759586
0	5498	0.010106808505952358
0	5560	0.011592252179980278
0	5500	-0.011196675710380077
0	5546	0.008571429178118706
0	5558	0.0022309808991849422
0	5502	-0.010390124283730984
0	5486	-0.0029641338624060154
0	5402	-0.015537907369434834
0	5388	-0.0025879917666316032
0	5328	-0.011112071573734283
0	5260	-0.012653830461204052
0	5204	-0.010432838462293148
0	5156	-0.008915524929761887
0	5178	0.0040639895014464855
0	5142	-0.006636842153966427
0	5182	0.007378258276730776
0	5158	-0.004435245413333178
0	5210	0.009630817919969559
0	5206	-0.0007418030872941017
0	5254	0.008914642035961151
0	5298	0.00818208884447813
0	5240	-0.010795517824590206
0	5306	0.01230577938258648
0	5306	0.0
0	5374	0.012704422697424889
0	5340	-0.006353714969009161
0	5370	0.005610272753983736
0	5422	0.009729932062327862
0	5344	-0.014597811736166477
0	5406	0.011613241396844387
0	5366	-0.007494191639125347
0	5358	-0.0015000749845057726
0	5358	0.0
0	5352	-0.0011274804128333926
0	5352	0.0
0	5314	-0.007158645894378424
0	5326	0.0022632968612015247
0	5282	-0.008307111449539661
0	5356	0.013981610536575317
0	5308	-0.009070980362594128
0	5370	0.011718159541487694
0	5332	-0.007177123799920082
0	5312	-0.0037743919529020786
0	5314	0.0003770691400859505
0	5418	0.01959085278213024
0	5370	-0.009026288986206055
0	5458	0.016528718173503876
0	5462	0.0007498968625441194
0	5472	0.0018717944622039795
0	5460	-0.002242431743070483
0	5372	-0.016423424705863
0	5334	-0.00708867097273469
0	5232	-0.019016370177268982
0	5236	0.0007460830383934081
0	5178	-0.01082291454076767
0	5240	0.011583443731069565
0	5250	0.0018694617319852114
0	5242	-0.0014966885792091489
0	5520	0.052068375051021576
0	6024	0.0942937359213829
0	5782	-0.04510213062167168
0	5382	-0.074356809258461
0	4678	-0.13084854185581207
0	4332	-0.06458115577697754
0	4986	0.12284919619560242
0	5370	0.07229732722043991
0	5478	0.02032647840678692
0	5442	-0.006769037805497646
0	5420	-0.004132490139454603
0	5448	0.005257426295429468
0	5432	-0.0030016133096069098
0	5426	-0.0011251687537878752
0	5444	0.0033735241740942
0	5446	0.00037452715332619846
0	5452	0.001122656394727528
0	5436	-0.0029931156896054745
0	5456	0.003739855717867613
0	5432	-0.00448788283392787
0	5456	0.004488721955567598
0	5488	0.005985559429973364
0	5458	-0.005610482767224312
0	5474	0.0029906542040407658
0	5494	0.0037350598722696304
0	5538	0.008203751407563686
0	5574	0.006699585355818272
0	5550	-0.004455445799976587
0	5522	-0.005188067443668842
0	5504	-0.0033295925240963697
0	5434	-0.012927532196044922
0	5344	-0.016629917547106743
0	5342	-0.0003711080062203109
0	5292	-0.009303017519414425
0	5182	-0.02047806978225708
0	5212	0.005567515734583139
0	5178	-0.006275687366724014
0	5182	0.0007374450215138495
0	5182	0.0
0	5170	-0.002218934940174222
0	5214	0.008149757981300354
0	5182	-0.005934644490480423
0	5230	0.00891662947833538
0	5216	-0.0026039406657218933
0	5290	0.013781629502773285
0	5326	0.006710992194712162
0	5292	-0.006342888809740543
0	5354	0.011577964760363102
0	5326	-0.005231428425759077
0	5386	0.011219287291169167
0	5390	0.000748166989069432
0	5384	-0.0011227123904973269
0	5422	0.007115127518773079
0	5338	-0.01573171280324459
0	5372	0.006373008247464895
0	5392	0.003751688404008746
0	5360	-0.006008185911923647
0	5362	0.0003760152612812817
0	5300	-0.011670222505927086
0	5354	0.010178565047681332
0	5302	-0.009810827672481537
0	5296	-0.00113295903429389
0	5322	0.004910972900688648
0	5294	-0.0052894060499966145
0	5340	0.008689629845321178
0	5362	0.004151779226958752
0	5382	0.0037707865703850985
0	5400	0.0033893624786287546
0	5426	0.004889056086540222
0	5458	0.00600811094045639
0	5480	0.004123144317418337
0	5424	-0.010477865114808083
0	5344	-0.014945821836590767
0	5310	-0.00634746765717864
0	5216	-0.01753862202167511
0	5180	-0.006720012053847313
0	5204	0.004484081640839577
0	5206	0.0003738783416338265
0	5282	0.014220492914319038
0	5248	-0.006363546010106802
0	5620	0.06968466937541962
0	6138	0.09689487516880035
0	5492	-0.12027256935834885
0	4874	-0.11500955373048782
0	4348	-0.09817095845937729
0	4784	0.0818953663110733
0	5048	0.04977750778198242
0	5458	0.07745786756277084
0	5482	0.004531379789113998
0	5410	-0.013578585349023342
0	5430	0.0037705020513385534
0	5414	-0.003013977315276861
0	5462	0.009035238064825535
0	5418	-0.008275032043457031
0	5448	0.005637684836983681
0	5462	0.00262914109043777
0	5458	-0.0007507131667807698
0	5466	0.0015007129404693842
0	5464	-0.0003750234318431467
0	5474	0.0018746718997135758
0	5460	-0.002624278422445059
0	5444	-0.002999550197273493
0	5502	0.0108720101416111
0	5476	-0.004868852905929089
0	5572	0.01795869506895542
0	5570	-0.0003733107587322593
0	5554	-0.002979256911203265
0	5554	0.0
0	5508	-0.00852841604501009
0	5466	-0.007775953970849514
0	5410	-0.01035400852560997
0	5322	-0.016291670501232147
0	5260	-0.011536314152181149
0	5206	-0.010062236338853836
0	5172	-0.006322444882243872
0	5118	-0.009990503080189228
0	5152	0.0062773865647614
0	5166	0.002583152847364545
0	5172	0.0011090573389083147
0	5182	0.0018519662553444505
0	5170	-0.0022254916839301586
0	5226	0.010402347892522812
0	5220	-0.0011158362030982971
0	5236	0.0029800336342304945
0	5256	0.0037292561028152704
0	5274	0.0033603403717279434
0	5340	0.012335679493844509
0	5328	-0.002244500909000635
0	5378	0.00936014112085104
0	5372	-0.0011238200822845101
0	5400	0.005247835535556078
0	5370	-0.0056247892789542675
0	5350	-0.00375159434042871
0	5392	0.007885842584073544
0	5332	-0.011271415278315544
0	5362	0.00564419012516737
0	5352	-0.0018838541582226753
0	5364	0.0022634961642324924
0	5364	0.0
0	5334	-0.005670648999512196
0	5368	0.006432084832340479
0	5324	-0.008326079696416855
0	5330	0.0011353602167218924
0	5370	0.007565727457404137
0	5330	-0.007557912264019251
0	5360	0.005662799347192049
0	5334	-0.004900298081338406
0	5332	-0.0003765154688153416
0	5370	0.0071463496424257755
0	5342	-0.005259203724563122
0	5432	0.016887664794921875
0	5426	-0.0011240023886784911
0	5446	0.003742001485079527
0	5448	0.0003736734506674111
0	5480	0.005970891565084457
0	5508	0.005217262078076601
0	5418	-0.01674543134868145
0	5336	-0.01524957176297903
0	5310	-0.004834990482777357
0	5248	-0.011534454300999641
0	5182	-0.012288061901926994
0	5246	0.011931839399039745
0	5236	-0.0018657877808436751
0	5238	0.0003734222846105695
0	5276	0.007101830095052719
0	5468	0.0358954556286335
0	6098	0.11770421266555786
0	5482	-0.11455634236335754
0	5010	-0.08771277219057083
0	4376	-0.11807651072740555
0	4638	0.049086958169937134
0	5048	0.07716727256774902
0	5444	0.07466157525777817
0	5476	0.006028939038515091
0	5444	-0.006024928297847509
0	5464	0.003762887790799141
0	5456	-0.0015041740844026208
0	5436	-0.0037575620226562023
0	5510	0.013893930241465569
0	5472	-0.007128475233912468
0	5494	0.0041236598044633865
0	5452	-0.007869393564760685
0	5510	0.01086549274623394
0	5480	-0.00561783742159605
0	5470	-0.0018722383538261056
0	5458	-0.00224682642146945
0	5448	-0.001872939639724791
0	5508	0.011235534213483334
0	5500	-0.0014964647125452757
0	5528	0.005231428425759077
0	5552	0.004476275760680437
0	5550	-0.00037216689088381827
0	5600	0.009286660701036453
0	5536	-0.01186019740998745
0	5500	-0.006659103091806173
0	5478	-0.004063839092850685
0	5378	-0.01847085915505886
0	5338	-0.007421242538839579
0	5204	-0.024883320555090904
0	5158	-0.008531790226697922
0	5152	-0.001107487827539444
0	5104	-0.008831972256302834
0	5158	0.009932557120919228
0	5114	-0.008107410743832588
0	5154	0.007386797107756138
0	5138	-0.0029600029811263084
0	5174	0.006673422642052174
0	5210	0.006685071159154177
0	5206	-0.0007438262109644711
0	5260	0.010060612112283707
0	5240	-0.0037310649640858173
0	5310	0.013079386204481125
0	5344	0.006358467973768711
0	5308	-0.006739469710737467
0	5348	0.007496345788240433
0	5310	-0.007126959972083569
0	5378	0.012765319086611271
0	5334	-0.008263531140983105
0	5366	0.006016395054757595
0	5390	0.004516088403761387
0	5346	-0.008286667987704277
0	5372	0.004903008230030537
0	5370	-0.00037757697282359004
0	5416	0.00869685783982277
0	5362	-0.010217081755399704
0	5398	0.006817321293056011
0	5354	-0.008336490951478481
0	5356	0.0003789888578467071
0	5346	-0.0018947289790958166
0	5336	-0.0018930311780422926
0	5360	0.004538177512586117
0	5370	0.0018884314922615886
0	5332	-0.007164044305682182
0	5344	0.002259858651086688
0	5320	-0.004513200838118792
0	5362	0.007889891974627972
0	5326	-0.0067532919347286224
0	5354	0.005247573368251324
0	5434	0.014979589730501175
0	5450	0.0029916607309132814
0	5454	0.0007470305426977575
0	5446	-0.0014920734101906419
0	5504	0.01080839242786169
0	5506	0.0003723331610672176
0	5380	-0.02342820353806019
0	5356	-0.004461629781872034
0	5258	-0.01821313053369522
0	5222	-0.006695515010505915
0	5178	-0.008189093321561813
0	5236	0.010807318612933159
0	5182	-0.010071620345115662
0	5226	0.008214881643652916
0	5400	0.032515667378902435
0	5924	0.09790244698524475
0	5842	-0.015272293239831924
0	5246	-0.1106736958026886
1	4418	-0.15389953553676605
0	4764	0.06468579918146133
0	5214	0.0844404399394989
0	5554	0.06385216861963272
0	5472	-0.015378652140498161
0	5458	-0.002623786684125662
0	5490	0.005993931088596582
0	5476	-0.002619760576635599
0	5488	0.0022436617873609066
0	5490	0.0003735524951480329
0	5480	-0.0018662752117961645
0	5502	0.004101875703781843
0	5454	-0.008941322565078735
0	5470	0.002980070887133479
0	5442	-0.005214476492255926
0	5490	0.008939768187701702
0	5516	0.004841051995754242
0	5462	-0.010053744539618492
0	5480	0.003352163592353463
0	5470	-0.0018611575942486525
0	5538	0.012646928429603577
0	5520	-0.003341915085911751
0	5570	0.009266008622944355
0	5550	-0.00369745003990829
0	5576	0.004797401838004589
0	5518	-0.010676025412976742
0	5476	-0.007717088796198368
0	5424	-0.009550046175718307
0	5330	-0.01731654815375805
0	5286	-0.008131182752549648
0	5182	-0.01921442523598671
0	5178	-0.0007355554844252765
0	5114	-0.011739098466932774
0	5108	-0.001101213856600225
0	5132	0.0044169072061777115
0	5114	-0.0033196040894836187
0	5182	0.012567303143441677
0	5166	-0.0029626337345689535
0	5212	0.008533900603652
0	5268	0.010406858287751675
0	5252	-0.0029774829745292664
0	5278	0.004845262039452791
0	5302	0.00447878148406744
0	5304	0.000373585062334314
0	5286	-0.003365744138136506
0	5346	0.01123006734997034
0	5346	0.0
0	5340	-0.0011252108961343765
0	5404	0.012011410668492317
0	5376	-0.0052574919536709785
0	5376	0.0
0	5366	-0.0018806890584528446
0	5366	0.0
0	5358	-0.0015079355798661709
0	5316	-0.007926222868263721
0	5360	0.008317265659570694
0	5332	-0.005298080388456583
0	5362	0.005681674927473068
0	5338	-0.004547119140625
0	5322	-0.0030312598682940006
0	5356	0.0064399633556604385
0	5314	-0.007946518249809742
0	5338	0.004536976106464863
0	5336	-0.00037754845106974244
0	5324	-0.002262045396491885
0	5344	0.003765532746911049
0	5362	0.003384094685316086
0	5362	0.0
0	5370	0.0015005064196884632
0	5398	0.00524658989161253
0	5404	0.0011233570985496044
0	5346	-0.010848826728761196
0	5428	0.015331496484577656
0	5434	0.0011209365911781788
0	5452	0.003360089613124728
0	5476	0.004475496709346771
0	5474	-0.0003726569120772183
0	5522	0.008936661295592785
0	5458	-0.011902105063199997
0	5372	-0.015988102182745934
0	5266	-0.01970675401389599
0	5182	-0.01562732458114624
0	5228	0.008567596785724163
0	5182	-0.008574943989515305
0	5246	0.011943417601287365
0	5220	-0.004854127299040556
0	5324	0.019433440640568733
0	5864	0.10090942680835724
0	6016	0.02831559255719185
0	5348	-0.12391788512468338
1	4330	-0.18881456553936005
0	4590	0.048531606793403625
0	5142	0.10350258648395538
0	5486	0.06458073109388351
0	5440	-0.008627695962786674
0	5470	0.005622680764645338
0	5452	-0.0033709548879414797
0	5480	0.005240763071924448
0	5472	-0.001496259355917573
0	5484	0.002242962596938014
0	5512	0.0052307769656181335
0	5490	-0.004107133951038122
0	5522	0.0059686643071472645
0	5456	-0.012303180061280727
0	5486	0.005591589957475662
0	5474	-0.0022361637093126774
0	5494	0.003726986004039645
0	5502	0.0014906092546880245
0	5518	0.0029815887100994587
0	5570	0.009686552919447422
0	5550	-0.0037210225127637386
0	5566	0.0029715842101722956
0	5562	-0.0007411341648548841
0	5592	0.0055470638908445835
0	5548	-0.008115186356008053
0	5470	-0.014359352178871632
0	5470	0.0
0	5388	-0.015059133991599083
0	5348	-0.007367386948317289
0	5242	-0.019603975117206573
0	5214	-0.00518179452046752
0	5176	-0.006994294002652168
0	5086	-0.01650608889758587
0	5132	0.00843933504074812
0	5104	-0.005148131400346756
0	5152	0.008843579329550266
0	5152	0.0
0	5182	0.005548294633626938
0	5228	0.008523043245077133
0	5234	0.0011133791413158178
0	5288	0.010035931132733822
0	5326	0.007072135340422392
0	5286	-0.007451934739947319
0	5342	0.01044802088290453
0	5330	-0.0022404498886317015
0	5366	0.006727882195264101
0	5376	0.0018701143562793732
0	5382	0.001122894580475986
0	5382	0.0
0	5358	-0.004498763009905815
0	5362	0.0007507883128710091
0	5326	-0.006765052210539579
0	5354	0.005269629415124655
0	5328	-0.004899620544165373
0	5328	0.0
0	5320	-0.0015121729811653495
0	5318	-0.0003784008731599897
0	5346	0.00530269555747509
0	5292	-0.010229339823126793
0	5334	0.007958966307342052
0	5310	-0.004545339848846197
0	5328	0.0034069400280714035
0	5348	0.003781862324103713
0	5320	-0.005285877734422684
0	5366	0.008673680946230888
0	5354	-0.002258979482576251
0	5368	0.002632139716297388
0	5342	-0.0048816511407494545
0	5356	0.002625952009111643
0	5368	0.0022490161936730146
0	5374	0.0011235674610361457
0	5438	0.011978289112448692
0	5470	0.005984962917864323
0	5476	0.001120894681662321
0	5440	-0.006719761062413454
0	5498	0.010818877257406712
0	5532	0.006336899474263191
0	5440	-0.017130302265286446
0	5388	-0.009678860194981098
0	5304	-0.015634499490261078
0	5214	-0.01675686426460743
0	5152	-0.011554230004549026
0	5182	0.005596805829554796
0	5182	0.0
0	5222	0.007477194536477327
0	5246	0.004489281680434942
0	5390	0.026948124170303345
0	6078	0.1286943554878235
0	5946	-0.02457917481660843
1	5106	-0.15578056871891022
0	4106	-0.18571481108665466
0	4704	0.11189142614603043
0	5228	0.0984284058213234
0	5484	0.0481233187019825
0	5450	-0.006384816486388445
0	5440	-0.0018769004382193089
0	5446	0.0011255346471443772
0	5486	0.007499906234443188
0	5476	-0.0018732905155047774
0	5498	0.0041181533597409725
0	5508	0.0018703709356486797
0	5510	0.00037376192631199956
0	5508	-0.0003735943464562297
0	5488	-0.0037350598722696304
0	5474	-0.002614346332848072
0	5486	0.002240394242107868
0	5522	0.00672168517485261
0	5490	-0.0059752026572823524
0	5568	0.014560026116669178
0	5514	-0.01006874069571495
0	5556	0.007821034640073776
0	5570	0.0026014891918748617
0	5590	0.003706815419718623
0	5600	0.0018487477209419012
0	5550	-0.00921998918056488
0	5534	-0.0029444601386785507
0	5454	-0.014696337282657623
0	5408	-0.00844708364456892
0	5340	-0.012538413517177105
0	5276	-0.011844978667795658
0	5242	-0.006286052521318197
0	5152	-0.01652386784553528
0	5156	0.0007323860772885382
0	5082	-0.013555099256336689
0	5114	0.005876088049262762
0	5098	-0.0029440987855196
0	5140	0.007744504604488611
0	5206	0.012192868627607822
0	5178	-0.0051816669292747974
0	5236	0.010753219947218895
0	5278	0.007799442857503891
0	5288	0.001859657815657556
0	5324	0.006703994236886501
0	5310	-0.0026100899558514357
0	5372	0.01157176960259676
0	5354	-0.003361679147928953
0	5352	-0.0003738270897883922
0	5378	0.004864905495196581
0	5338	-0.007489701732993126
0	5358	0.0037502343766391277
0	5362	0.000750778941437602
0	5346	-0.003006765153259039
0	5342	-0.0007527475245296955
0	5310	-0.006031362805515528
0	5330	0.0037764827720820904
0	5302	-0.005294406786561012
0	5330	0.005302160046994686
0	5302	-0.005306313280016184
0	5336	0.006447697523981333
0	5326	-0.0018964295741170645
0	5310	-0.0030333285685628653
0	5340	0.0056850481778383255
0	5318	-0.004164090380072594
0	5346	0.005294340196996927
0	5314	-0.006040622945874929
0	5318	0.000754128850530833
0	5336	0.0033888944890350103
0	5344	0.0015043249586597085
0	5368	0.004509074613451958
0	5374	0.001125928945839405
0	5366	-0.0014999437844380736
0	5402	0.0067460364662110806
0	5448	0.00861380249261856
0	5452	0.0007484469679184258
0	5464	0.002243353985249996
0	5536	0.013452411629259586
0	5512	-0.004479060415178537
0	5532	0.0037288388703018427
0	5398	-0.02495933137834072
0	5328	-0.013033601455390453
0	5208	-0.022347478196024895
0	5174	-0.006337844301015139
0	5218	0.008210691623389721
0	5218	0.0
0	5224	0.0011211461387574673
0	5272	0.008975094184279442
0	5676	0.0755545049905777
0	6324	0.12092560529708862
1	5494	-0.1539108157157898
0	4016	-0.2738051116466522
0	4566	0.10272053629159927
0	5070	0.09456738084554672
0	5496	0.08006716519594193
0	5478	-0.0033793507609516382
0	5450	-0.005252429284155369
0	5482	0.005997675936669111
0	5486	0.0007489421404898167
0	5508	0.004115329124033451
0	5502	-0.0011212158715352416
0	5490	-0.0022405616473406553
0	5498	0.0014926302246749401
0	5460	-0.00708417734131217
0	5498	0.007081625051796436
0	5484	-0.002608209615573287
0	5478	-0.0011175820836797357
0	5516	0.007077404297888279
0	5490	-0.00484303617849946
0	5554	0.011922948062419891
0	5540	-0.002607788657769561
0	5580	0.007444261107593775
0	5590	0.001858160481788218
0	5568	-0.004078303463757038
0	5584	0.0029588353354483843
0	5508	-0.014022829942405224
0	5474	-0.0062622022815048695
0	5396	-0.014344211667776108
0	5376	-0.0036752093583345413
0	5330	-0.00846854317933321
0	5182	-0.027413837611675262
0	5182	0.0
0	5134	-0.008844339288771152
0	5128	-0.0011016990756615996
0	5112	-0.0029368214309215546
0	5134	0.0040476396679878235
0	5182	0.008849884383380413
0	5152	-0.005540302488952875
0	5206	0.009992844425141811
0	5202	-0.0007414913852699101
0	5276	0.013743576593697071
0	5310	0.006323464214801788
0	5320	0.0018619201146066189
0	5346	0.004846346098929644
0	5330	-0.0029844804666936398
0	5382	0.009709704667329788
0	5344	-0.00710006058216095
0	5374	0.005609993357211351
0	5384	0.0018716544145718217
0	5332	-0.009739043191075325
0	5366	0.006376673933118582
0	5324	-0.0078856460750103
0	5354	0.0056416429579257965
0	5294	-0.011300002224743366
0	5280	-0.0026412103325128555
0	5318	0.007182730827480555
0	5276	-0.007948323152959347
0	5310	0.006442403886467218
0	5314	0.000758341804612428
0	5298	-0.0030345560517162085
0	5342	0.008346717804670334
0	5306	-0.006822230294346809
0	5324	0.0034084452781826258
0	5330	0.0011347874533385038
0	5356	0.004911158233880997
0	5358	0.0003772019117604941
0	5330	-0.00527340080589056
0	5354	0.004515862092375755
0	5322	-0.006013530306518078
0	5434	0.021032072603702545
0	5452	0.0033752531744539738
0	5444	-0.0014984641456976533
0	5476	0.005988846067339182
0	5494	0.0033654505386948586
0	5534	0.007471886929124594
0	5394	-0.026118427515029907
0	5318	-0.014177517034113407
0	5222	-0.017911339178681374
0	5182	-0.007470119744539261
0	5212	0.005609643645584583
0	5210	-0.0003742561675608158
0	5234	0.004495448432862759
0	5292	0.010870108380913734
0	5672	0.07124555110931396
0	6282	0.11409831047058105
0	5498	-0.14573393762111664
1	4516	-0.18233583867549896
0	4588	0.013431999832391739
0	4990	0.07533356547355652
0	5434	0.08337297290563583
0	5474	0.007504690438508987
0	5450	-0.004499100148677826
0	5452	0.0003745879512280226
0	5434	-0.003368599573150277
0	5502	0.01271757110953331
0	5460	-0.007847826927900314
0	5472	0.002240812638774514
0	5502	0.0055970847606658936
0	5460	-0.007828712463378906
0	5502	0.0078220060095191
0	5488	-0.0026062349788844585
0	5498	0.001861180760897696
0	5496	-0.00037211147719062865
0	5508	0.0022323920857161283
0	5514	0.0011160990688949823
0	5510	-0.0007441583438776433
0	5532	0.004089928697794676
0	5550	0.0033418736420571804
0	5558	0.0014822683297097683
0	5530	-0.005175919737666845
0	5478	-0.00959362369030714
0	5482	0.0007367567741312087
0	5382	-0.018390916287899017
0	5360	-0.0040437704883515835
0	5280	-0.014732783660292625
0	5260	-0.003705991432070732
0	5244	-0.0029691578820347786
0	5180	-0.011823387816548347
0	5182	0.0003681388043332845
0	5158	-0.0044124675914645195
0	5176	0.0033149579539895058
0	5182	0.0011070111067965627
0	5204	0.0040657417848706245
0	5268	0.011845709756016731
0	5254	-0.0025939056649804115
0	5302	0.008907033130526543
0	5310	0.0014859576476737857
0	5336	0.004834210965782404
0	5372	0.006700417026877403
0	5374	0.0003724487323779613
0	5384	0.0018637244356796145
0	5364	-0.0037298589013516903
0	5394	0.005599452648311853
0	5388	-0.0011206016642972827
0	5342	-0.008597702719271183
0	5374	0.005987426731735468
0	5320	-0.010112359188497066
0	5338	0.0033752531744539738
0	5370	0.006008411757647991
0	5318	-0.009775171056389809
0	5332	0.0026352775748819113
0	5312	-0.0037681341636925936
0	5294	-0.003394945291802287
0	5312	0.0033968244679272175
0	5308	-0.0007550778682343662
0	5340	0.0060395593754947186
0	5320	-0.0037728254683315754
0	5336	0.003016818780452013
0	5418	0.015446051955223083
0	5456	0.007147335447371006
0	5446	-0.0018773701740428805
0	5468	0.004123247694224119
0	5474	0.0011225164635106921
0	5466	-0.001494172727689147
0	5408	-0.01081941556185484
0	5306	-0.019009044393897057
0	5248	-0.010808795690536499
0	5182	-0.012304403819143772
0	5206	0.004478614777326584
0	5242	0.006724866107106209
0	5236	-0.0011217329883947968
0	5246	0.0018712809542194009
0	5466	0.041198503226041794
0	6012	0.10220126062631607
0	5892	-0.022374700754880905
0	5378	-0.09551181644201279
1	4516	-0.1601734310388565
0	4808	0.054529834538698196
0	5152	0.06445326656103134
0	5506	0.06641734391450882
0	5440	-0.012368351221084595
0	5442	0.00037454586708918214
0	5454	0.002245452953502536
0	5458	0.0007477380568161607
0	5472	0.0026147044263780117
0	5442	-0.005597223993390799
0	5444	0.00037291168700903654
0	5454	0.0018631225684657693
0	5444	-0.0018617582973092794
0	5500	0.01042416412383318
0	5412	-0.016376357525587082
0	5480	0.012657128274440765
0	5440	-0.007444815244525671
0	5462	0.004095512442290783
0	5510	0.008935884572565556
0	5510	0.0
0	5542	0.005945966113358736
0	5534	-0.0014837895287200809
0	5528	-0.0011104256846010685
0	5518	-0.0018470403738319874
0	5462	-0.010325879789888859
0	5464	0.0003682698879856616
0	5324	-0.025744441896677017
0	5318	-0.0011042944388464093
0	5236	-0.01515655592083931
0	5222	-0.002598205814138055
0	5182	-0.007430616766214371
0	5176	-0.0011100147385150194
0	5182	0.0011075014481320977
0	5152	-0.005536485463380814
0	5176	0.0044388547539711
0	5246	0.012967766262590885
0	5234	-0.0022257394157350063
0	5260	0.004829003941267729
0	5252	-0.0014876709319651127
0	5282	0.005586383864283562
0	5312	0.005591937806457281
0	5324	0.002238610992208123
0	5366	0.00784147810190916
0	5314	-0.009713211096823215
0	5388	0.013838673010468483
0	5390	0.00037407418130896986
0	5368	-0.004117126110941172
0	5370	0.00037445235648192465
0	5354	-0.002997339703142643
0	5358	0.0007500656065531075
0	5332	-0.004880063235759735
0	5350	0.0033829500898718834
0	5334	-0.0030105370096862316
0	5320	-0.0026374286971986294
0	5328	0.0015089784283190966
0	5348	0.0037756271194666624
0	5332	-0.0030227082315832376
0	5370	0.00717857014387846
0	5328	-0.007931612432003021
0	5446	0.022271154448390007
0	5414	-0.006031136028468609
0	5444	0.005645960569381714
0	5444	0.0
0	5476	0.006002400536090136
0	5468	-0.0014975664671510458
0	5416	-0.009716478176414967
0	5394	-0.004106469452381134
0	5240	-0.02871669828891754
0	5214	-0.004848876502364874
0	5204	-0.0018653932493180037
0	5216	0.0022395579144358635
0	5182	-0.0063492064364254475
0	5242	0.011214394122362137
0	5230	-0.0022446129005402327
0	5670	0.08234559744596481
0	6112	0.08257463574409485
0	5546	-0.10526707768440247
0	4870	-0.12558674812316895
0	4288	-0.10845932364463806
0	4714	0.07991696149110794
0	5130	0.07835651934146881
0	5476	0.06525428593158722
0	5454	-0.004145832732319832
0	5420	-0.006402370519936085
0	5444	0.004516485147178173
0	5438	-0.001128300209529698
0	5420	-0.0033829922322183847
0	5444	0.004508171230554581
0	5464	0.003755069337785244
0	5478	0.00262631312943995
0	5458	-0.0037511251866817474
0	5442	-0.0030000749975442886
0	5474	0.006000224966555834
0	5434	-0.007498875260353088
0	5462	0.005250590853393078
0	5468	0.0011251687537878752
0	5480	0.002249606419354677
0	5514	0.006370461080223322
0	5532	0.0033668354153633118
0	5586	0.010080520063638687
0	5526	-0.011174016632139683
0	5530	0.0007435036823153496
0	5478	-0.009644751437008381
0	5406	-0.013334815390408039
0	5384	-0.004070104565471411
0	5298	-0.015938518568873405
0	5292	-0.0011176097905263305
0	5210	-0.015298127196729183
0	5212	0.0003723377885762602
0	5182	-0.005553224589675665
0	5154	-0.005168085917830467
0	5182	0.005167323164641857
0	5182	0.0
0	5226	0.008148450404405594
0	5228	0.00037082817289046943
0	5236	0.001485295593738556
0	5276	0.007435773499310017
0	5238	-0.00707029365003109
0	5274	0.006706741638481617
0	5324	0.009325922466814518
0	5310	-0.0026137607637792826
0	5358	0.008969726972281933
0	5366	0.0014957372331991792
0	5378	0.0022451169788837433
0	5362	-0.002994534792378545
0	5352	-0.001872752676717937
0	5408	0.010495014488697052
0	5346	-0.011624708771705627
0	5340	-0.001126154325902462
0	5342	0.0003758362145163119
0	5322	-0.003764115273952484
0	5334	0.002261363435536623
0	5322	-0.002264150884002447
0	5374	0.009820956736803055
0	5334	-0.007556104101240635
0	5352	0.00340131763368845
0	5340	-0.0022667741868644953
0	5336	-0.0007553630857728422
0	5430	0.01773696579039097
0	5398	-0.006029848009347916
0	5434	0.006774387788027525
0	5470	0.006762510631233454
0	5478	0.0015000749845057726
0	5480	0.00037432622048072517
0	5404	-0.014201891608536243
0	5324	-0.014932988211512566
0	5244	-0.014924815855920315
0	5222	-0.004105141386389732
0	5182	-0.007464636117219925
0	5182	0.0
0	5230	0.008970621973276138
0	5208	-0.004113584756851196
0	5318	0.020587170496582985
0	5678	0.067396380007267
0	6154	0.08894646912813187
0	5534	-0.11528592556715012
0	4918	-0.1144130751490593
0	4346	-0.106564000248909
0	4776	0.08060988038778305
0	5090	0.05907215550541878
0	5442	0.0663258284330368
0	5482	0.007531349081546068
0	5384	-0.018434680998325348
0	5414	0.005641077179461718
0	5404	-0.001879887655377388
0	5418	0.002630688948556781
0	5466	0.00901577714830637
0	5418	-0.009008670225739479
0	5466	0.009004051797091961
0	5434	-0.006001350469887257
0	5458	0.0044999998062849045
0	5458	0.0
0	5442	-0.002999774878844619
0	5468	0.0048757316544651985
0	5458	-0.0018754219636321068
0	5494	0.006749241147190332
0	5484	-0.0018727994756773114
0	5538	0.010097987949848175
0	5552	0.0026128501631319523
0	5572	0.0037240709643810987
0	5582	0.0018575390568003058
0	5514	-0.012603795155882835
0	5470	-0.008140007965266705
0	5422	-0.008871693164110184
0	5348	-0.013698799535632133
0	5316	-0.005953414365649223
0	5228	-0.016394054517149925
0	5170	-0.010784410871565342
0	5138	-0.005919786635786295
0	5152	0.0025841384194791317
0	5172	0.0036902183201164007
0	5158	-0.0025874495040625334
0	5182	0.004444499500095844
0	5182	0.0
0	5204	0.004085068125277758
0	5220	0.002974641276523471
0	5254	0.006328877992928028
0	5260	0.001118331914767623
0	5224	-0.006716584786772728
0	5308	0.01569565385580063
0	5314	0.001121998648159206
0	5362	0.008984053507447243
0	5354	-0.0014982395805418491
0	5388	0.006371018476784229
0	5386	-0.0003749531169887632
0	5354	-0.006001950707286596
0	5394	0.007509011309593916
0	5352	-0.00788890477269888
0	5358	0.001128300209529698
0	5370	0.002259348053485155
0	5346	-0.004524432122707367
0	5366	0.003775959834456444
0	5336	-0.005669219885021448
0	5362	0.004917474929243326
0	5306	-0.010595492087304592
0	5308	0.00037851068191230297
0	5324	0.0030282381922006607
0	5316	-0.0015132027911022305
0	5362	0.008692913688719273
0	5348	-0.0026419414207339287
0	5378	0.005654332228004932
0	5362	-0.0030117458663880825
0	5332	-0.0056398045271635056
0	5438	0.019908595830202103
0	5420	-0.003375295316800475
0	5462	0.00786507036536932
0	5506	0.008227169513702393
0	5474	-0.0059740133583545685
0	5518	0.008203343488276005
0	5400	-0.021959751844406128
0	5382	-0.003347882302477956
0	5288	-0.017476018518209457
0	5182	-0.019716039299964905
0	5234	0.009682344272732735
0	5230	-0.0007455082959495485
0	5234	0.0007462315261363983
0	5276	0.007841282524168491
0	5458	0.034003861248493195
0	6104	0.1206154003739357
0	5516	-0.10927878320217133
0	4966	-0.1021241843700409
0	4360	-0.11278755962848663
0	4570	0.03933026269078255
0	5052	0.09070608019828796
0	5446	0.07429009675979614
0	5444	-0.00037677554064430296
0	5418	-0.004893902689218521
0	5434	0.003009857377037406
0	5450	0.0030076319817453623
0	5446	-0.0007514935568906367
0	5488	0.007885842584073544
0	5454	-0.006379385944455862
0	5492	0.007125801406800747
0	5480	-0.0022480047773569822
0	5492	0.0022474154829978943
0	5474	-0.003369608661159873
0	5482	0.001497491728514433
0	5500	0.00336986081674695
0	5472	-0.005241155158728361
0	5536	0.01198322419077158
0	5476	-0.011224743910133839
0	5532	0.010470290668308735
0	5564	0.005973938386887312
0	5544	-0.003724857000634074
0	5594	0.009294256567955017
0	5538	-0.010386141948401928
0	5554	0.0029619026463478804
0	5486	-0.012566528283059597
0	5432	-0.009977580979466438
0	5366	-0.01224550325423479
0	5274	-0.01708533987402916
0	5224	-0.009267840534448624
0	5170	-0.009956119582057
0	5162	-0.0014695617137476802
0	5118	-0.008077149279415607
0	5182	0.011772207915782928
0	5152	-0.005527101457118988
0	5152	0.0
0	5222	0.012940118089318275
0	5208	-0.0025916649028658867
0	5248	0.007415647152811289
0	5224	-0.00445599714294076
0	5256	0.005949798505753279
0	5246	-0.0018620354821905494
0	5298	0.009696668945252895
0	5300	0.00037339903065003455
0	5314	0.0026166269090026617
0	5352	0.0071097142063081264
0	5342	-0.0018727058777585626
0	5370	0.005247835535556078
0	5342	-0.005253283306956291
0	5394	0.009764280170202255
0	5374	-0.0037587392143905163
0	5346	-0.005268505308777094
0	5372	0.004898266866803169
0	5322	-0.009432894177734852
0	5368	0.008690066635608673
0	5344	-0.004539264366030693
0	5338	-0.0011358329793438315
0	5338	0.0
0	5314	-0.004546832293272018
0	5356	0.007954946719110012
0	5336	-0.0037849158979952335
0	5344	0.0015123826451599598
0	5364	0.0037766252644360065
0	5336	-0.0052791014313697815
0	5346	0.0018835702212527394
0	5322	-0.00451506907120347
0	5370	0.009020521305501461
0	5356	-0.002628548536449671
0	5370	0.002626115921884775
0	5372	0.0003748734889086336
0	5442	0.01310844998806715
0	5476	0.006359578110277653
0	5460	-0.002988457214087248
0	5490	0.0055977110750973225
0	5500	0.0018637013854458928
0	5504	0.0007446201052516699
0	5374	-0.024177351966500282
0	5334	-0.007437709253281355
0	5258	-0.014134801924228668
0	5176	-0.015258653089404106
0	5204	0.0052173263393342495
0	5174	-0.005595901049673557
0	5228	0.010083405300974846
0	5254	0.004859328735619783
0	5402	0.02767251804471016
0	6008	0.11328373849391937
0	5762	-0.04579697921872139
0	5090	-0.12477564066648483
0	4294	-0.14802692830562592
0	4654	0.06737283617258072
0	5182	0.09924811869859695
0	5502	0.06020846962928772
0	5462	-0.0075186085887253284
0	5454	-0.001502798986621201
0	5442	-0.002252534031867981
0	5454	0.002251181984320283
0	5442	-0.002249325392767787
0	5500	0.010866849683225155
0	5474	-0.004866969306021929
0	5450	-0.004489673767238855
0	5462	0.0022437453735619783
0	5450	-0.0022434659767895937
0	5492	0.007853402756154537
0	5442	-0.00934742484241724
0	5490	0.008976212702691555
0	5482	-0.0014961287379264832
0	5506	0.00448900181800127
0	5522	0.0029902071692049503
0	5520	-0.0003733386402018368
0	5582	0.011554661206901073
0	5542	-0.007435865234583616
0	5572	0.005565243307501078
0	5584	0.002220632042735815
0	5548	-0.0066472990438342094
0	5504	-0.0081098023802042
0	5408	-0.017683032900094986
0	5338	-0.012941554188728333
0	5268	-0.012975458055734634
0	5216	-0.00962832197546959
0	5152	-0.01178318914026022
0	5074	-0.014317004941403866
0	5114	0.007346908561885357
0	5108	-0.0011046604486182332
0	5134	0.0047972840256989
0	5166	0.0059159924276173115
0	5182	0.0029630360659211874
0	5182	0.0
0	5214	0.005945597775280476
0	5240	0.004839370027184486
0	5216	-0.0044736056588590145
0	5302	0.016053762286901474
0	5264	-0.007100591901689768
0	5304	0.00748297618702054
0	5314	0.001872939639724791
0	5322	0.0014995501842349768
0	5358	0.006755066104233265
0	5348	-0.001877863658592105
0	5336	-0.0022556674666702747
0	5366	0.0056457482278347015
0	5340	-0.00489771319553256
0	5352	0.0022639231756329536
0	5336	-0.0030221750494092703
0	5334	-0.00037833405076526105
0	5380	0.008715422824025154
0	5334	-0.008724679239094257
0	5346	0.0022784520406275988
0	5296	-0.009497277438640594
0	5344	0.009119811467826366
0	5338	-0.0011394280008971691
0	5328	-0.0018975811544805765
0	5372	0.008340072818100452
0	5334	-0.007189254276454449
0	5376	0.007935008965432644
0	5354	-0.004149429965764284
0	5378	0.004520398564636707
0	5358	-0.00376199115999043
0	5358	0.0
0	5366	0.0015014826785773039
0	5416	0.00937535148113966
0	5482	0.012361865490674973
0	5430	-0.009723503142595291
0	5522	0.017189407721161842
0	5492	-0.0055962493643164635
0	5502	0.0018632382852956653
0	5428	-0.013771883212029934
0	5326	-0.018970392644405365
0	5282	-0.008184929378330708
0	5178	-0.019354118034243584
0	5176	-0.00037255973438732326
0	5230	0.01007099449634552
0	5182	-0.008958120830357075
0	5262	0.014946007169783115
0	5274	0.0022429346572607756
0	5752	0.08937697857618332
0	6200	0.08357377350330353
0	5416	-0.1454707384109497
1	4464	-0.17656660079956055
0	4524	0.011185682378709316
0	5166	0.1202998161315918
0	5522	0.06678005307912827
0	5410	-0.020983999595046043
0	5454	0.008241758681833744
0	5436	-0.003369104117155075
0	5440	0.0007484096568077803
0	5510	0.013090147636830807
0	5478	-0.005979148205369711
0	5496	0.003360759001225233
0	5502	0.0011192916426807642
0	5516	0.00260947342030704
0	5522	0.0011176514672115445
0	5476	-0.008566533215343952
0	5484	0.0014894065679982305
0	5440	-0.0081936689093709
0	5496	0.01043167244642973
0	5518	0.0040983096696436405
0	5526	0.00148946198169142
0	5590	0.01190092507749796
0	5550	-0.007423905190080404
0	5638	0.016295090317726135
0	5584	-0.009970826096832752
0	5524	-0.011054609902203083
0	5522	-0.00036771464510820806
0	5418	-0.019090741872787476
0	5414	-0.0007336129201576114
0	5276	-0.025362052023410797
0	5182	-0.01737394742667675
0	5174	-0.00148076843470335
0	5088	-0.015848834067583084
0	5112	0.00440765917301178
0	5076	-0.006613675504922867
0	5116	0.007368654012680054
0	5116	0.0
0	5166	0.009246701374650002
0	5202	0.006668724585324526
0	5206	0.0007420599577017128
0	5260	0.010036677122116089
0	5268	0.0014889261219650507
0	5298	0.005591381806880236
0	5348	0.009330795146524906
0	5348	0.0
0	5370	0.004114302806556225
0	5348	-0.004117023199796677
0	5380	0.005993482191115618
0	5356	-0.004496796056628227
0	5360	0.0007501218933612108
0	5394	0.006382339634001255
0	5354	-0.0075148423202335835
0	5332	-0.004139280878007412
0	5336	0.0007536268676631153
0	5310	-0.004907882772386074
0	5316	0.0011345443781465292
0	5292	-0.004544135183095932
0	5344	0.00985993817448616
0	5336	-0.0015176234301179647
0	5314	-0.004175523761659861
0	5340	0.004933523945510387
0	5350	0.0018956147832795978
0	5360	0.0018935089465230703
0	5340	-0.003780527738854289
0	5368	0.005285146180540323
0	5330	-0.007159544620662928
0	5362	0.006020998116582632
0	5352	-0.001878663431853056
0	5342	-0.0018764777341857553
0	5374	0.005999475251883268
0	5426	0.009738922119140625
0	5478	0.009728840552270412
0	5498	0.0037369674537330866
0	5472	-0.004852013662457466
0	5542	0.0130530446767807
0	5490	-0.009684869088232517
0	5390	-0.018610883504152298
0	5336	-0.01004725880920887
0	5228	-0.020100003108382225
0	5182	-0.008567916229367256
0	5182	0.0
0	5220	0.007095023524016142
0	5230	0.0018686698749661446
0	5230	0.0
0	5616	0.07222422957420349
0	6272	0.12250996381044388
0	5818	-0.08428426831960678
0	5238	-0.10732657462358475
1	4188	-0.19442524015903473
0	4782	0.11077405512332916
0	5276	0.09243089705705643
0	5472	0.03668763116002083
0	5432	-0.007481576409190893
0	5420	-0.0022434659767895937
0	5478	0.01083801593631506
0	5486	0.0014938750537112355
0	5502	0.0029848518315702677
0	5452	-0.00931954849511385
0	5508	0.010431413538753986
0	5492	-0.002977335127070546
0	5484	-0.0014875787310302258
0	5516	0.005948176607489586
0	5500	-0.002973387949168682
0	5516	0.0029733513947576284
0	5520	0.0007431352860294282
0	5520	0.0
0	5546	0.00483014015480876
0	5522	-0.004454287700355053
0	5576	0.010010628961026669
0	5548	-0.005179557949304581
0	5596	0.008859247900545597
0	5578	-0.003313777968287468
0	5542	-0.006613027770072222
0	5496	-0.008433867245912552
0	5386	-0.02013521082699299
0	5378	-0.0014664368936792016
0	5294	-0.015482158400118351
0	5244	-0.009245334193110466
0	5204	-0.007395993452519178
0	5152	-0.009554958902299404
0	5114	-0.006966682150959969
0	5096	-0.003303277539089322
0	5136	0.007357539609074593
0	5152	0.002948366804048419
0	5178	0.004798996262252331
0	5250	0.01331410277634859
0	5244	-0.001111124875023961
0	5284	0.007419314701110125
0	5302	0.003342163283377886
0	5340	0.007064685225486755
0	5352	0.00223305681720376
0	5348	-0.0007449621916748583
0	5362	0.0026100899558514357
0	5340	-0.0041050901636481285
0	5378	0.007098380941897631
0	5350	-0.005235014483332634
0	5370	0.0037432622630149126
0	5310	-0.01124212983995676
0	5326	0.003001876175403595
0	5314	-0.002254932653158903
0	5310	-0.0007527475245296955
0	5340	0.005655752960592508
0	5304	-0.006797069683670998
0	5342	0.007185447495430708
0	5334	-0.0015141955809667706
0	5318	-0.003029384883120656
0	5350	0.006061065010726452
0	5312	-0.0071949707344174385
0	5350	0.007191884331405163
0	5338	-0.0022690314799547195
0	5372	0.006421394646167755
0	5346	-0.004902515560388565
0	5370	0.004518298897892237
0	5372	0.0003759728278964758
0	5362	-0.0018772762268781662
0	5382	0.0037502343766391277
0	5408	0.004871285520493984
0	5446	0.007112286519259214
0	5472	0.0048613883554935455
0	5452	-0.003735571401193738
0	5490	0.007092640269547701
0	5506	0.002983812941238284
0	5478	-0.005216549150645733
0	5384	-0.017500093206763268
0	5310	-0.013772908598184586
0	5234	-0.014151118695735931
0	5206	-0.0052173263393342495
0	5182	-0.004476554226130247
0	5212	0.005600149277597666
0	5236	0.0044832993298769
0	5292	0.010466115549206734
0	5798	0.09457943588495255
0	6230	0.08051790297031403
0	5512	-0.13305823504924774
0	4786	-0.1343996524810791
0	4088	-0.1296546310186386
0	4732	0.12054206430912018
0	5250	0.09733305126428604
0	5472	0.0417303703725338
0	5474	0.0003756621154025197
0	5476	0.00037534249713644385
0	5448	-0.0052513787522912025
0	5488	0.0074971881695091724
0	5454	-0.006367915775626898
0	5496	0.007862224243581295
0	5508	0.0022444729693233967
0	5474	-0.006354348734021187
0	5508	0.006351736839860678
0	5478	-0.005602310877293348
0	5500	0.004108207765966654
0	5486	-0.002613533055409789
0	5508	0.004107082728296518
0	5510	0.0003733665216714144
0	5522	0.0022397530265152454
0	5538	0.0029837756883352995
0	5544	0.0011173323728144169
0	5570	0.004832474514842033
0	5580	0.0018544618505984545
0	5536	-0.008139606565237045
0	5502	-0.006277154665440321
0	5444	-0.010690586641430855
0	5416	-0.0051561580039560795
0	5350	-0.012182367034256458
0	5282	-0.012619857676327229
0	5252	-0.005575517658144236
0	5172	-0.0148252472281456
0	5156	-0.0029453271999955177
0	5156	0.0
0	5134	-0.004041641019284725
0	5182	0.008836415596306324
0	5182	0.0
0	5218	0.006651229225099087
0	5232	0.00259025814011693
0	5268	0.006671196315437555
0	5286	0.0033394349738955498
0	5316	0.005572962574660778
0	5334	0.0033477575052529573
0	5334	0.0
0	5364	0.005590478889644146
0	5364	0.0
0	5366	0.00037327827885746956
0	5362	-0.000747114303521812
0	5358	-0.0007477939943782985
0	5390	0.005988024175167084
0	5330	-0.011236796155571938
0	5364	0.006375797092914581
0	5316	-0.009011263959109783
0	5336	0.003760670777410269
0	5314	-0.004143074154853821
0	5324	0.0018858436960726976
0	5318	-0.0011327737011015415
0	5300	-0.0034010179806500673
0	5342	0.007941510528326035
0	5310	-0.006050979718565941
0	5342	0.006049911491572857
0	5304	-0.0071801976300776005
0	5314	0.0018879560520872474
0	5320	0.0011316484306007624
0	5338	0.0033914484083652496
0	5342	0.0007526908884756267
0	5322	-0.003759681014344096
0	5366	0.008264048956334591
0	5398	0.00600465340539813
0	5422	0.004498818889260292
0	5426	0.0007490823627449572
0	5468	0.007858497090637684
0	5496	0.005234036128968
0	5500	0.0007469654665328562
0	5412	-0.0164162777364254
0	5282	-0.02424408122897148
0	5210	-0.013434340246021748
0	5182	-0.00522953923791647
0	5176	-0.0011218726867809892
0	5250	0.013852143660187721
0	5240	-0.0018735479097813368
0	5302	0.011622529476881027
0	5680	0.07088740915060043
0	6236	0.1040315330028534
0	5668	-0.1056835949420929
0	4996	-0.12476018816232681
0	4190	-0.1499423384666443
0	4730	0.1011652797460556
0	5084	0.06655637174844742
0	5434	0.06591088324785233
0	5440	0.0011290221009403467
0	5434	-0.0011283284984529018
0	5440	0.0011274098651483655
0	5458	0.0033795624040067196
0	5452	-0.0011255487333983183
0	5516	0.011997301131486893
0	5460	-0.010486236773431301
0	5472	0.0022451169788837433
0	5482	0.001869694679044187
0	5458	-0.004484919365495443
0	5482	0.004483914002776146
0	5460	-0.004108821507543325
0	5480	0.0037354782689362764
0	5484	0.000747170124668628
0	5500	0.0029889780562371016
0	5520	0.0037341765128076077
0	5530	0.001864326768554747
0	5554	0.0044655040837824345
0	5504	-0.009281719103455544
0	5542	0.0070398179814219475
0	5498	-0.008136696182191372
0	5470	-0.005169676151126623
0	5416	-0.009959792718291283
0	5354	-0.011453907005488873
0	5316	-0.0070584737695753574
0	5238	-0.014520091935992241
0	5216	-0.004089270252734423
0	5208	-0.0014776141615584493
0	5212	0.0007366391946561635
0	5182	-0.005520456004887819
0	5180	-0.0003686001873575151
0	5202	0.004061088897287846
0	5158	-0.008133788593113422
0	5242	0.01555517129600048
0	5182	-0.011125670745968819
0	5254	0.013373123481869698
0	5244	-0.001860395772382617
0	5288	0.008196720853447914
0	5340	0.009698115289211273
0	5360	0.0037333399523049593
0	5348	-0.0022413707338273525
0	5376	0.005234232172369957
0	5374	-0.0003740694955922663
0	5400	0.004866119008511305
0	5344	-0.010486368089914322
0	5382	0.007122684735804796
0	5334	-0.009004839695990086
0	5364	0.005634931847453117
0	5332	-0.006017752457410097
0	5338	0.0011295464355498552
0	5340	0.00037699806853197515
0	5302	-0.0071700820699334145
0	5334	0.006044350098818541
0	5294	-0.007559340447187424
0	5316	0.004159209318459034
0	5304	-0.0022686596494168043
0	5362	0.010960630141198635
0	5310	-0.009817742742598057
0	5322	0.0022641795221716166
0	5362	0.007542046718299389
0	5390	0.005273466929793358
0	5428	0.007147424854338169
0	5436	0.0015025920001789927
0	5462	0.004874939098954201
0	5478	0.0029958433005958796
0	5472	-0.0011213695397600532
0	5398	-0.013811467215418816
0	5346	-0.009696065448224545
0	5240	-0.019757935777306557
0	5182	-0.010817666538059711
0	5220	0.00709528848528862
0	5238	0.003363605821505189
0	5210	-0.005236777476966381
0	5288	0.01460309512913227
0	5652	0.06819543987512589
0	6196	0.10172280669212341
0	5674	-0.09711627662181854
0	5216	-0.08503001183271408
1	4398	-0.15200506150722504
0	4992	0.11102250218391418
0	5262	0.050573792308568954
0	5498	0.04422678053379059
0	5440	-0.010856002569198608
0	5448	0.001496389857493341
0	5456	0.0014949544565752149
0	5460	0.0007468260009773076
0	5464	0.0007461016066372395
0	5458	-0.0011184430913999677
0	5466	0.0014898874796926975
0	5434	-0.005954226478934288
0	5482	0.008927353657782078
0	5462	-0.003717610379680991
0	5484	0.0040885102935135365
0	5478	-0.0011147167533636093
0	5458	-0.003715354250743985
0	5520	0.011519025079905987
0	5478	-0.007800891529768705
0	5502	0.004455445799976587
0	5534	0.0059348647482693195
0	5504	-0.005553841590881348
0	5534	0.005542827770113945
0	5482	-0.009589023888111115
0	5462	-0.003682563081383705
0	5406	-0.010295253247022629
0	5330	-0.01396203227341175
0	5304	-0.004785921890288591
0	5230	-0.013696433044970036
0	5230	0.0
0	5182	-0.008907804265618324
0	5160	-0.004063038621097803
0	5218	0.010700580663979053
0	5156	-0.011441648006439209
0	5208	0.00961645133793354
0	5182	-0.004815112333744764
0	5224	0.0077910516411066055
0	5250	0.004829960409551859
0	5300	0.009300479665398598
0	5288	-0.0022343872115015984
0	5302	0.0026095386128872633
0	5344	0.0078366007655859
0	5332	-0.002240282716229558
0	5362	0.0056059397757053375
0	5342	-0.0037396226543933153
0	5394	0.009731631726026535
0	5364	-0.005617346148937941
0	5412	0.008993030525743961
0	5366	-0.008624137379229069
0	5380	0.002626575995236635
0	5352	-0.005257162731140852
0	5350	-0.0003759398532565683
0	5340	-0.0018815146759152412
0	5302	-0.007158466149121523
0	5348	0.008675317279994488
0	5294	-0.010191370733082294
0	5338	0.008309935219585896
0	5324	-0.0026439372450113297
0	5280	-0.0083084711804986
0	5338	0.01094862911850214
0	5322	-0.003018260234966874
0	5334	0.0022617042995989323
0	5326	-0.0015061564045026898
0	5332	0.0011288522509858012
0	5392	0.01127607561647892
0	5402	0.0018771822797134519
0	5464	0.011622529476881027
0	5412	-0.009733331389725208
0	5468	0.010471465066075325
0	5514	0.00859256274998188
0	5470	-0.008207423612475395
0	5386	-0.01565236784517765
0	5314	-0.01341281644999981
0	5286	-0.005216678604483604
0	5170	-0.021622158586978912
0	5226	0.010449450463056564
0	5206	-0.003735850565135479
0	5222	0.002991623478010297
0	5234	0.002246377756819129
0	5376	0.026604050770401955
0	6016	0.11990857124328613
0	5870	-0.02724117785692215
0	5346	-0.09745452553033829
0	4582	-0.14208489656448364
0	4284	-0.05566902086138725
0	4784	0.09402737766504288
0	5210	0.08036825805902481
0	5510	0.05664295703172684
0	5424	-0.01621866226196289
0	5456	0.006029393058270216
0	5456	0.0
0	5494	0.0071485904045403
0	5462	-0.006013831589370966
0	5492	0.005633167922496796
0	5486	-0.0011255064746364951
0	5468	-0.003374535823240876
0	5502	0.00637149577960372
0	5442	-0.011241148225963116
0	5470	0.005244886502623558
0	5458	-0.0022477803286165
0	5470	0.002248566597700119
0	5488	0.003372849663719535
0	5494	0.0011235674610361457
0	5502	0.001496408600360155
0	5498	-0.0007471980061382055
0	5544	0.008575263433158398
0	5538	-0.0011163067538291216
0	5550	0.0022280262783169746
0	5532	-0.0033352687023580074
0	5496	-0.006658282596617937
0	5446	-0.009240778163075447
0	5350	-0.017804814502596855
0	5346	-0.0007442598580382764
0	5244	-0.018978627398610115
0	5210	-0.006300341337919235
0	5182	-0.00515900831669569
0	5128	-0.009925254620611668
0	5154	0.004781228490173817
0	5136	-0.0033173200208693743
0	5182	0.008492620661854744
0	5182	0.0
0	5204	0.004075432196259499
0	5256	0.009650121442973614
0	5252	-0.0007432642159983516
0	5256	0.0007443707436323166
0	5314	0.010808795690536499
0	5308	-0.0011192220263183117
0	5350	0.007844015955924988
0	5354	0.0007474772282876074
0	5402	0.008976212702691555
0	5378	-0.004489673767238855
0	5386	0.00149741698987782
0	5390	0.0007491852738894522
0	5346	-0.008246392011642456
0	5378	0.0060032266192138195
0	5342	-0.0067587015219032764
0	5318	-0.0045115044340491295
0	5318	0.0
0	5312	-0.001131079625338316
0	5356	0.008306065574288368
0	5318	-0.007179745938628912
0	5354	0.00680735195055604
0	5318	-0.0068071805872023106
0	5330	0.0022694605868309736
0	5350	0.0037803847808390856
0	5332	-0.003399347886443138
0	5364	0.006037584040313959
0	5336	-0.0052750566974282265
0	5368	0.006021753419190645
0	5340	-0.005261377897113562
0	5418	0.014642204158008099
0	5466	0.008997301571071148
0	5434	-0.0059883976355195045
0	5490	0.010468072257936
0	5498	0.0014932245248928666
0	5490	-0.001490979571826756
0	5398	-0.017127538099884987
0	5318	-0.014885197393596172
0	5252	-0.012282726354897022
0	5182	-0.013035382144153118
0	5202	0.0037294880021363497
0	5182	-0.003733572317287326
0	5182	0.0
0	5266	0.015721308067440987
0	5474	0.03894839435815811
0	6092	0.11565236747264862
0	5792	-0.05588049069046974
0	5250	-0.10066117346286774
1	4414	-0.15532873570919037
0	4664	0.04670976102352142
0	5108	0.08331561088562012
0	5486	0.07102414965629578
0	5468	-0.003379308618605137
0	5454	-0.0026258863508701324
0	5436	-0.0033735241740942
0	5498	0.011613677255809307
0	5500	0.0003742468252312392
0	5500	0.0
0	5496	-0.0007470956188626587
0	5470	-0.0048522548750042915
0	5504	0.006340129300951958
0	5462	-0.007827740162611008
0	5476	0.0026093116030097008
0	5470	-0.0011179846478626132
0	5482	0.0022362470626831055
0	5506	0.00447293883189559
0	5500	-0.0011181235313415527
0	5538	0.007076965179294348
0	5550	0.00223178300075233
0	5570	0.0037127796094864607
0	5594	0.004444663878530264
0	5578	-0.002955956384539604
0	5544	-0.0062661259435117245
0	5496	-0.008826665580272675
0	5468	-0.005141640082001686
0	5412	-0.010283657349646091
0	5356	-0.010326641611754894
0	5274	-0.015161787159740925
0	5218	-0.01035286020487547
0	5208	-0.0018396105151623487
0	5156	-0.009534169919788837
0	5134	-0.004032504744827747
0	5136	0.0003673814353533089
0	5162	0.004785687196999788
0	5152	-0.001843952457420528
0	5156	0.000738870759960264
0	5230	0.013697953894734383
0	5212	-0.0033374950289726257
0	5308	0.0178317129611969
0	5292	-0.0029754156712442636
0	5310	0.0033510399516671896
0	5320	0.0018639329355210066
0	5308	-0.002238694578409195
0	5366	0.010831673629581928
0	5346	-0.003737479215487838
0	5382	0.006733167450875044
0	5352	-0.005615313537418842
0	5382	0.005620503332465887
0	5366	-0.0030005250591784716
0	5320	-0.008636442944407463
0	5360	0.007521719206124544
0	5328	-0.006026213988661766
0	5342	0.002640612656250596
0	5328	-0.0026439703069627285
0	5328	0.0
0	5354	0.004919770173728466
0	5340	-0.0026500762905925512
0	5326	-0.0026503438130021095
0	5328	0.0003784963337238878
0	5312	-0.0030258712358772755
0	5346	0.006425763480365276
0	5324	-0.004152876324951649
0	5362	0.007164584472775459
0	5320	-0.007907520048320293
0	5384	0.012037618085741997
0	5434	0.00939072947949171
0	5412	-0.004124742466956377
0	5468	0.01048741489648819
0	5474	0.0011218588333576918
0	5516	0.007844895124435425
0	5486	-0.005595692433416843
0	5420	-0.012297067791223526
0	5326	-0.01750313490629196
0	5258	-0.012660427019000053
0	5180	-0.014531995169818401
0	5182	0.00037299981340765953
0	5182	0.0
0	5182	0.0
0	5246	0.011978439055383205
0	5290	0.008241347037255764
0	5896	0.1135270893573761
0	6050	0.028753874823451042
0	5284	-0.14238271117210388
1	4260	-0.19040772318840027
0	4826	0.10594621300697327
0	5266	0.0826197937130928
0	5518	0.047344692051410675
0	5424	-0.017640655860304832
0	5464	0.007502063177525997
0	5462	-0.00037478451849892735
0	5484	0.004118770360946655
0	5506	0.004115226212888956
0	5476	-0.005605311132967472
0	5508	0.005974756553769112
0	5474	-0.006340759806334972
0	5490	0.0029822185169905424
0	5490	0.0
0	5488	-0.0003724672133103013
0	5468	-0.00372420996427536
0	5454	-0.002607043832540512
0	5500	0.00856929924339056
0	5488	-0.0022352749947458506
0	5524	0.006702995393425226
0	5562	0.007066699676215649
0	5562	0.0
0	5598	0.0066664195619523525
0	5582	-0.0029552646446973085
0	5582	0.0
0	5542	-0.0073519498109817505
0	5512	-0.0055039809085428715
0	5420	-0.016855990514159203
0	5358	-0.011392591521143913
0	5270	-0.01623895764350891
0	5174	-0.017716752365231514
0	5164	-0.0018351766047999263
0	5106	-0.010622061789035797
0	5138	0.005866177845746279
0	5090	-0.008819745853543282
0	5152	0.011415524408221245
0	5130	-0.004058441612869501
0	5178	0.008872895501554012
0	5210	0.005926438141614199
0	5232	0.004081885330379009
0	5260	0.0052029783837497234
0	5270	0.0018610652768984437
0	5296	0.004844901151955128
0	5306	0.0018656715983524919
0	5346	0.00747123546898365
0	5362	0.0029911387246102095
0	5352	-0.0018706973642110825
0	5386	0.006364419125020504
0	5364	-0.004121085163205862
0	5394	0.005624015815556049
0	5378	-0.003001913893967867
0	5340	-0.007137759122997522
0	5350	0.001880972064100206
0	5294	-0.010549847967922688
0	5350	0.010568962432444096
0	5332	-0.003402132075279951
0	5310	-0.004163670353591442
0	5336	0.0049269795417785645
0	5318	-0.003412796650081873
0	5316	-0.0003792955249082297
0	5298	-0.0034126671962440014
0	5316	0.003409994998946786
0	5336	0.0037852502427995205
0	5324	-0.002267859410494566
0	5348	0.004530410282313824
0	5318	-0.0056538344360888
0	5334	0.003012237371876836
0	5334	0.0
0	5378	0.008264980278909206
0	5436	0.010883298702538013
0	5452	0.002998463110998273
0	5470	0.003369230078533292
0	5486	0.0029911387246102095
0	5550	0.011950405314564705
0	5526	-0.004474606364965439
0	5460	-0.012291418388485909
0	5352	-0.020101001486182213
0	5230	-0.022706687450408936
0	5182	-0.008942433632910252
0	5174	-0.0014920919202268124
0	5210	0.0067236097529530525
0	5208	-0.0003739249659702182
0	5218	0.0018711641896516085
0	5652	0.08127544075250626
0	6288	0.11883852630853653
0	5712	-0.10700219869613647
1	4718	-0.184219628572464
0	4334	-0.0714285746216774
0	4928	0.1111818179488182
0	5418	0.09193935245275497
0	5462	0.008250515908002853
0	5462	0.0
0	5450	-0.002245789160951972
0	5452	0.0003740321844816208
0	5494	0.007848413661122322
0	5514	0.003733944147825241
0	5508	-0.0011188185308128595
0	5486	-0.0040979026816785336
0	5494	0.0014887414872646332
0	5516	0.004091095179319382
0	5494	-0.0040890672244131565
0	5488	-0.001114910002797842
0	5498	0.001857976196333766
0	5508	0.0018578381277620792
0	5548	0.007433285936713219
0	5540	-0.0014864547410979867
0	5602	0.01151431817561388
0	5582	-0.003708556992933154
0	5608	0.0048106578178703785
0	5574	-0.006274374667555094
0	5554	-0.003681749338284135
0	5502	-0.009552385658025742
0	5474	-0.0051343487575650215
0	5428	-0.008421823382377625
0	5338	-0.016500037163496017
0	5296	-0.007744980975985527
0	5206	-0.01663893461227417
0	5160	-0.008478846400976181
0	5108	-0.009536385536193848
0	5102	-0.001099142711609602
0	5096	-0.001101267640478909
0	5108	0.0022074782755225897
0	5182	0.013642397709190845
0	5142	-0.0073864334262907505
0	5182	0.007400555070489645
0	5218	0.006673339754343033
0	5260	0.007799828890711069
0	5278	0.0033479235135018826
0	5286	0.0014898874796926975
0	5332	0.008577928878366947
0	5318	-0.0026136632077395916
0	5380	0.011587485671043396
0	5360	-0.003740415209904313
0	5392	0.005989817436784506
0	5392	0.0
0	5352	-0.007499999832361937
0	5376	0.004505293443799019
0	5348	-0.005263619590550661
0	5330	-0.0033887242898344994
0	5334	0.0007543658721260726
0	5280	-0.010199327021837234
0	5324	0.008324923925101757
0	5330	0.0011364928213879466
0	5352	0.004170932341367006
0	5346	-0.0011380736250430346
0	5304	-0.007966112345457077
0	5360	0.010620946064591408
0	5334	-0.004926357418298721
0	5332	-0.00037853457615710795
0	5342	0.001890001934953034
0	5336	-0.001132289064116776
0	5370	0.0064066327176988125
0	5336	-0.006396106909960508
0	5382	0.008645208552479744
0	5432	0.00938285794109106
0	5414	-0.0033725546672940254
0	5494	0.014970806427299976
0	5464	-0.005605869926512241
0	5510	0.00858572032302618
0	5454	-0.010437634773552418
0	5354	-0.01862451806664467
0	5304	-0.009310177527368069
0	5156	-0.02757113426923752
0	5170	0.0026113882195204496
0	5154	-0.002988568739965558
0	5182	0.005237756762653589
0	5220	0.007115927059203386
0	5288	0.012746176682412624
0	5956	0.1252593994140625
0	6064	0.020172588527202606
0	5408	-0.12197540700435638
1	4460	-0.17612960934638977
0	4702	0.045203227549791336
0	5050	0.06525816023349762
0	5468	0.07853304594755173
0	5442	-0.004881101660430431
0	5468	0.004876889754086733
0	5430	-0.007122952025383711
0	5482	0.009741353802382946
0	5482	0.0
0	5472	-0.0018699511419981718
0	5492	0.0037367346230894327
0	5472	-0.0037338973488658667
0	5480	0.001492295996285975
0	5458	-0.004101315047591925
0	5514	0.010438024066388607
0	5486	-0.005215771496295929
0	5510	0.0044708834029734135
0	5516	0.001117401639930904
0	5510	-0.0011173600796610117
0	5534	0.0044678873382508755
0	5516	-0.003347176592797041
0	5568	0.009656931273639202
0	5580	0.002222853247076273
0	5558	-0.004064940381795168
0	5540	-0.003317605471238494
0	5446	-0.017287250608205795
0	5452	0.001101914793252945
0	5372	-0.014677463099360466
0	5310	-0.011415804736316204
0	5262	-0.008879133500158787
0	5218	-0.008146538399159908
0	5210	-0.001474292017519474
0	5164	-0.008450808003544807
0	5222	0.010647932067513466
0	5174	-0.008825368247926235
0	5182	0.001473314594477415
0	5182	0.0
0	5182	0.0
0	5246	0.011847171932458878
0	5242	-0.0007415280560962856
0	5286	0.00816841796040535
0	5300	0.00260235951282084
0	5326	0.004838109482079744
0	5352	0.004842735361307859
0	5376	0.004473160952329636
0	5382	0.0011192498495802283
0	5372	-0.0018666235264390707
0	5380	0.0014945821603760123
0	5376	-0.0007479244959540665
0	5352	-0.004491298459470272
0	5338	-0.0026229016948491335
0	5324	-0.002625820692628622
0	5340	0.003005522768944502
0	5332	-0.0015050231013447046
0	5342	0.0018839488038793206
0	5332	-0.0018862942233681679
0	5316	-0.0030202355701476336
0	5318	0.00037785276072099805
0	5312	-0.0011339440243318677
0	5342	0.005669648293405771
0	5322	-0.0037778618279844522
0	5302	-0.003775389399379492
0	5304	0.00037732053897343576
0	5332	0.005277840420603752
0	5430	0.018459683284163475
0	5348	-0.015421071089804173
0	5432	0.015780773013830185
0	5468	0.006752616725862026
0	5462	-0.001123427296988666
0	5454	-0.0014958863612264395
0	5320	-0.02502303011715412
0	5270	-0.009334975853562355
0	5174	-0.017926501110196114
0	5142	-0.005981159396469593
0	5182	0.007486244197934866
0	5182	0.0
0	5242	0.011257035657763481
0	5266	0.00450647808611393
0	5714	0.08418098837137222
0	6206	0.09225346148014069
0	5624	-0.10854968428611755
0	5056	-0.10575049370527267
1	4246	-0.1510573923587799
0	4924	0.12730641663074493
0	5356	0.08132325857877731
0	5482	0.023717200383543968
0	5448	-0.006393861956894398
0	5414	-0.00638857576996088
0	5448	0.006384736392647028
0	5468	0.0037525328807532787
0	5458	-0.0018747891299426556
0	5482	0.004495672881603241
0	5458	-0.004490625578910112
0	5472	0.002617018064484
0	5446	-0.004855940584093332
0	5482	0.006722940597683191
0	5482	0.0
0	5484	0.0003730693715624511
0	5514	0.0055954838171601295
0	5482	-0.005966586992144585
0	5508	0.0048470087349414825
0	5536	0.005213764496147633
0	5532	-0.0007435957668349147
0	5574	0.007790473289787769
0	5524	-0.009249666705727577
0	5526	0.00036920804996043444
0	5474	-0.009579132311046124
0	5454	-0.003679040353745222
0	5384	-0.012861814349889755
0	5326	-0.010678514838218689
0	5264	-0.011476946994662285
0	5208	-0.010389353148639202
0	5182	-0.004819098394364119
0	5140	-0.0077399383299052715
0	5154	0.002576560713350773
0	5140	-0.0025797574780881405
0	5166	0.00480106333270669
0	5176	0.001849773689173162
0	5182	0.0011114953085780144
0	5254	0.013359888456761837
0	5268	0.002601199084892869
0	5288	0.003720376640558243
0	5296	0.0014899428933858871
0	5326	0.005592911038547754
0	5352	0.004851590842008591
0	5342	-0.0018670882564038038
0	5382	0.007474865764379501
0	5394	0.0022438575979322195
0	5394	0.0
0	5388	-0.0011233992408961058
0	5358	-0.005620293319225311
0	5384	0.004875487647950649
0	5348	-0.006757094990462065
0	5356	0.0015033072559162974
0	5350	-0.0011290221009403467
0	5344	-0.0011302557541057467
0	5338	-0.0011315487790852785
0	5326	-0.00226503424346447
0	5342	0.003022479824721813
0	5328	-0.0026453693863004446
0	5336	0.0015116205904632807
0	5298	-0.007176943123340607
0	5300	0.00037751992931589484
0	5350	0.00943099707365036
0	5300	-0.00941856112331152
0	5336	0.0067751528695225716
0	5362	0.004887156654149294
0	5448	0.016145383939146996
0	5438	-0.0018741801613941789
0	5450	0.0022454247809946537
0	5480	0.005606708116829395
0	5476	-0.0007465751259587705
0	5518	0.007829880341887474
0	5340	-0.03313806280493736
0	5314	-0.004839970730245113
0	5214	-0.018619662150740623
0	5166	-0.00894454400986433
0	5182	0.0029855200555175543
0	5166	-0.002989462111145258
0	5222	0.010477996431291103
0	5204	-0.0033714177552610636
0	5314	0.020622937008738518
0	5842	0.099033422768116
0	5838	-0.0007479431806132197
0	5206	-0.11782105267047882
1	4310	-0.16718704998493195
0	4902	0.11117789149284363
0	5386	0.09114419668912888
0	5460	0.013930023647844791
0	5454	-0.001128625706769526
0	5442	-0.002255469560623169
0	5448	0.0011269863462075591
0	5484	0.00675557367503643
0	5464	-0.0037487815134227276
0	5484	0.0037461132742464542
0	5468	-0.0029934518970549107
0	5492	0.004486484453082085
0	5496	0.0007471421849913895
0	5500	0.0007469189586117864
0	5474	-0.004853100515902042
0	5478	0.0007465193048119545
0	5486	0.0014930572360754013
0	5474	-0.002239446621388197
0	5536	0.011573641560971737
0	5520	-0.002983108162879944
0	5562	0.007820646278560162
0	5568	0.001114827231504023
0	5574	0.0011120584094896913
0	5618	0.00813539233058691
0	5554	-0.011800425127148628
0	5536	-0.00331211113370955
0	5446	-0.016526902094483376
0	5392	-0.009908135049045086
0	5330	-0.011407403275370598
0	5250	-0.014765232801437378
0	5210	-0.0073806182481348515
0	5130	-0.014679975807666779
0	5162	0.005863812752068043
0	5110	-0.009541750885546207
0	5116	0.0011033331975340843
0	5142	0.004791037179529667
0	5152	0.0018461084691807628
0	5182	0.005548432003706694
0	5182	0.0
0	5258	0.014106815680861473
0	5254	-0.0007435036823153496
0	5294	0.007444907911121845
0	5342	0.008944876492023468
0	5330	-0.0022383604664355516
0	5384	0.010083280503749847
0	5384	0.0
0	5386	0.00037388302735053003
0	5378	-0.0014964647125452757
0	5370	-0.0014973608776926994
0	5388	0.0033725546672940254
0	5356	-0.006000600289553404
0	5338	-0.0033796895295381546
0	5334	-0.0007521247607655823
0	5304	-0.005649433936923742
0	5338	0.006415336858481169
0	5294	-0.008313493803143501
0	5334	0.0075692590326070786
0	5328	-0.0011361915385350585
0	5318	-0.0018944178009405732
0	5348	0.005683684255927801
0	5318	-0.005680168978869915
0	5336	0.0034057798329740763
0	5348	0.0022675737272948027
0	5324	-0.004529840312898159
0	5354	0.005654687061905861
0	5342	-0.0022584975231438875
0	5446	0.019549118354916573
0	5434	-0.0022515198215842247
0	5428	-0.0011239884188398719
0	5458	0.005611322354525328
0	5478	0.003736222628504038
0	5494	0.002984814578667283
0	5380	-0.021240388974547386
0	5358	-0.0040980554185807705
0	5250	-0.020114228129386902
0	5204	-0.008574304170906544
0	5220	0.00298570585437119
0	5222	0.00037359900306910276
0	5234	0.0022437735460698605
0	5248	0.0026199566200375557
0	5358	0.020603368058800697
0	5938	0.1086345762014389
0	5896	-0.007837283425033092
0	5304	-0.11008355021476746
1	4326	-0.1818609982728958
0	4722	0.07410179823637009
0	5182	0.0863860622048378
0	5474	0.05488859489560127
0	5456	-0.0033804508857429028
0	5432	-0.0045033772476017475
0	5446	0.0026255908887833357
0	5462	0.002998276147991419
0	5482	0.0037448974326252937
0	5492	0.001870883977971971
0	5446	-0.008597060106694698
0	5484	0.007097850553691387
0	5466	-0.0033591699320822954
0	5466	0.0
0	5482	0.0029849631246179342
0	5470	-0.0022379709407687187
0	5512	0.007832313887774944
0	5470	-0.007830658927559853
0	5506	0.006712994538247585
0	5512	0.0011179569410160184
0	5522	0.0018614808795973659
0	5560	0.007061709649860859
0	5534	-0.004821064416319132
0	5556	0.004071460105478764
0	5502	-0.009973036125302315
0	5476	-0.004793922882527113
0	5424	-0.009574429132044315
0	5370	-0.009938649833202362
0	5310	-0.011081560514867306
0	5218	-0.01705324836075306
0	5170	-0.008902077563107014
0	5152	-0.0033209514804184437
0	5110	-0.007728449068963528
0	5110	0.0
0	5094	-0.0029520660173147917
0	5118	0.004437979310750961
0	5096	-0.004076036624610424
0	5130	0.006312974728643894
0	5134	0.0007442322093993425
0	5182	0.00895010307431221
0	5226	0.008220098912715912
0	5220	-0.0011224604677408934
0	5258	0.007120638620108366
0	5290	0.006004128139466047
0	5312	0.004132386762648821
0	5316	0.0007521436200477183
0	5334	0.0033879163675010204
0	5358	0.004522271919995546
0	5362	0.0007542425883002579
0	5378	0.0030197035521268845
0	5324	-0.010200098156929016
0	5354	0.005673794541507959
0	5350	-0.0007574896444566548
0	5338	-0.002275111386552453
0	5370	0.006075333803892136
0	5336	-0.0064604394137859344
0	5376	0.007607262581586838
0	5340	-0.006848620250821114
0	5348	0.0015222051879391074
0	5338	-0.0019022980704903603
0	5350	0.00228102202527225
0	5374	0.004556846804916859
0	5346	-0.005308861844241619
0	5344	-0.0003786396700888872
0	5386	0.007939708419144154
0	5350	-0.006792965345084667
0	5380	0.005652556195855141
0	5354	-0.0048901597037911415
0	5422	0.012771711684763432
0	5492	0.013123687356710434
0	5440	-0.009730174206197262
0	5522	0.015323283150792122
0	5496	-0.004849479533731937
0	5590	0.017506828531622887
0	5502	-0.016358904540538788
0	5404	-0.01819644868373871
0	5356	-0.008907693438231945
0	5224	-0.02449282445013523
0	5182	-0.007799636106938124
0	5182	0.0
0	5222	0.007445554248988628
0	5242	0.0037251347675919533
0	5272	0.005591589957475662
0	5698	0.07943907380104065
0	6216	0.09637926518917084
0	5672	-0.10068853199481964
0	4890	-0.14444033801555634
0	4222	-0.12375412881374359
0	4724	0.09364739805459976
0	5182	0.0857720747590065
0	5512	0.061861082911491394
0	5476	-0.006741657387465239
0	5490	0.0026200872380286455
0	5444	-0.008601131848990917
0	5478	0.006353398319333792
0	5476	-0.00037351527134887874
0	5458	-0.003359002759680152
0	5490	0.0059686643071472645
0	5494	0.0007454527076333761
0	5514	0.0037255974020808935
0	5488	-0.004842615220695734
0	5470	-0.0033515808172523975
0	5486	0.0029801446944475174
0	5484	-0.0003725412243511528
0	5508	0.004473438952118158
0	5514	0.0011183180613443255
0	5562	0.008940434083342552
0	5574	0.0022322535514831543
0	5590	0.00296989269554615
0	5598	0.0014812072040513158
0	5572	-0.004801595583558083
0	5580	0.0014742377679795027
0	5520	-0.01103387400507927
0	5434	-0.015791213139891624
0	5420	-0.002574823098257184
0	5278	-0.026244131848216057
0	5214	-0.011857121251523495
0	5166	-0.008875083178281784
0	5152	-0.0025735925883054733
0	5156	0.0007333887624554336
0	5130	-0.004767784383147955
0	5162	0.005881776567548513
0	5166	0.0007366391946561635
0	5152	-0.002583375433459878
0	5226	0.013679553754627705
0	5214	-0.0022217559162527323
0	5262	0.008901417255401611
0	5260	-0.0003713422629516572
0	5274	0.002603101311251521
0	5302	0.005213311407715082
0	5348	0.008576009422540665
0	5364	0.002985557308420539
0	5336	-0.005228172056376934
0	5354	0.0033641087356954813
0	5318	-0.0067336708307266235
0	5344	0.004868974909186363
0	5366	0.004124278202652931
0	5326	-0.007507883012294769
0	5332	0.0011279325699433684
0	5326	-0.001129759126342833
0	5336	0.0018861519638448954
0	5350	0.0026445365510880947
0	5330	-0.003783388528972864
0	5364	0.00643947534263134
0	5310	-0.010231923311948776
0	5332	0.004171459935605526
0	5334	0.0003790942137129605
0	5336	0.00037880701711401343
0	5344	0.0015136034926399589
0	5350	0.0011338297044858336
0	5360	0.0018874097149819136
0	5332	-0.005277111195027828
0	5358	0.004894946701824665
0	5352	-0.0011282437480986118
0	5386	0.006385376211255789
0	5438	0.009756097570061684
0	5398	-0.007494191639125347
0	5462	0.011980531737208366
0	5462	0.0
0	5516	0.010084033943712711
0	5484	-0.005967773962765932
0	5346	-0.025714285671710968
0	5318	-0.005217974539846182
0	5220	-0.018264953047037125
0	5216	-0.0007461294298991561
0	5218	0.0003733014746103436
0	5216	-0.0003735943464562297
0	5264	0.008974647149443626
0	5274	0.001870440784841776
0	5752	0.08943941444158554
0	6234	0.0899488627910614
0	5620	-0.11394566297531128
0	5034	-0.10856811702251434
1	4214	-0.15219947695732117
0	4962	0.13983049988746643
0	5322	0.06744435429573059
0	5502	0.033724285662174225
0	5444	-0.010855324566364288
0	5426	-0.003366625402122736
0	5464	0.007103688549250364
0	5446	-0.003362516639754176
0	5462	0.0029873040039092302
0	5478	0.0029848888516426086
0	5462	-0.0029826632235199213
0	5480	0.0033532041124999523
0	5452	-0.005213052500039339
0	5492	0.007446570787578821
0	5462	-0.005581672303378582
0	5444	-0.003349003382027149
0	5488	0.008187366649508476
0	5468	-0.003722176654264331
0	5520	0.009678620845079422
0	5516	-0.0007437063613906503
0	5550	0.006313756108283997
0	5516	-0.006300885695964098
0	5550	0.006289230193942785
0	5552	0.00036919896956533194
0	5502	-0.009210930205881596
0	5474	-0.005150593817234039
0	5398	-0.013963059522211552
0	5394	-0.0007364945486187935
0	5284	-0.020358556881546974
0	5246	-0.007047565188258886
0	5234	-0.002222633920609951
0	5170	-0.011779863387346268
0	5182	0.00220590946264565
0	5160	-0.0040476396679878235
0	5178	0.00331866554915905
0	5180	0.00036934440140612423
0	5182	0.00036990459193475544
0	5238	0.010375366546213627
0	5254	0.002968203043565154
0	5266	0.0022290193010121584
0	5308	0.007811821531504393
0	5304	-0.00074469402898103
0	5350	0.008573345839977264
0	5324	-0.004848876502364874
0	5404	0.014935217797756195
0	5374	-0.005602729506790638
0	5408	0.006352527532726526
0	5374	-0.0063556949608027935
0	5350	-0.00448900181800127
0	5364	0.002621362917125225
0	5360	-0.0007496720645576715
0	5346	-0.002626970177516341
0	5300	-0.008640661835670471
0	5350	0.009406747296452522
0	5322	-0.005274460185319185
0	5318	-0.0007543468964286149
0	5320	0.000377543707145378
0	5282	-0.007176853250712156
0	5326	0.008315903134644032
0	5300	-0.004912643227726221
0	5322	0.004155438859015703
0	5326	0.0007551158778369427
0	5418	0.017350634559988976
0	5424	0.0011298867175355554
0	5448	0.004512069746851921
0	5482	0.006381301209330559
0	5472	-0.0018733140313997865
0	5498	0.004861812572926283
0	5412	-0.016055358573794365
0	5318	-0.01753164455294609
0	5264	-0.010068114846944809
0	5182	-0.015292800962924957
0	5182	0.0
0	5222	0.007473375648260117
0	5210	-0.0022434380371123552
0	5266	0.01048204954713583
0	5378	0.020978234708309174
0	5938	0.10491082817316055
0	5914	-0.0044803982600569725
0	5336	-0.1075255423784256
1	4382	-0.1775037944316864
0	4914	0.09958941489458084
0	5152	0.04467358440160751
0	5472	0.06012099236249924
0	5434	-0.0071339174173772335
0	5432	-0.0003752063785213977
0	5452	0.003749390598386526
0	5434	-0.003371670376509428
0	5460	0.00486557325348258
0	5436	-0.004487547092139721
0	5466	0.005604683421552181
0	5452	-0.0026131754275411367
0	5480	0.005222256761044264
0	5436	-0.008203241042792797
0	5464	0.005219855345785618
0	5458	-0.0011184292379766703
0	5450	-0.0014914614148437977
0	5498	0.00894999224692583
0	5484	-0.0026104142889380455
0	5526	0.007827740162611008
0	5534	0.001489073853008449
0	5564	0.0055746883153915405
0	5590	0.004819991532713175
0	5510	-0.014793447218835354
0	5532	0.0040609887801110744
0	5464	-0.012527327053248882
0	5418	-0.008464076556265354
0	5350	-0.012509044259786606
0	5272	-0.01440053153783083
0	5238	-0.006302053574472666
0	5174	-0.011869876645505428
0	5164	-0.0018456312827765942
0	5182	0.0033170348033308983
0	5152	-0.0055273729376494884
0	5178	0.004799822811037302
0	5172	-0.0011093990178778768
0	5226	0.010000617243349552
0	5214	-0.0022254642099142075
0	5238	0.004456990398466587
0	5274	0.006694685202091932
0	5266	-0.0014892033068463206
0	5308	0.007828031666576862
0	5316	0.0014923888957127929
0	5340	0.004481736570596695
0	5356	0.0029896111227571964
0	5382	0.0048613883554935455
0	5394	0.002244780771434307
0	5410	0.002994086593389511
0	5388	-0.004119130317121744
0	5382	-0.0011240725871175528
0	5408	0.004875365644693375
0	5388	-0.0037532371934503317
0	5410	0.004133111331611872
0	5396	-0.0026331297121942043
0	5358	-0.007152177859097719
0	5372	0.0026378927286714315
0	5302	-0.013197088614106178
0	5308	0.0011320041958242655
0	5326	0.003396910149604082
0	5314	-0.0022638377267867327
0	5342	0.005279764533042908
0	5300	-0.00791129283607006
0	5320	0.003764068242162466
0	5320	0.0
0	5312	-0.001502742525190115
0	5344	0.0060059307143092155
0	5354	0.0018748360453173518
0	5436	0.015361365862190723
0	5418	-0.0033673392608761787
0	5470	0.009716962464153767
0	5454	-0.002986188977956772
0	5502	0.008948100730776787
0	5432	-0.013033601455390453
0	5340	-0.01711755245923996
0	5300	-0.007442414294928312
0	5214	-0.016006749123334885
0	5178	-0.0067074913531541824
0	5240	0.011567308567464352
0	5212	-0.005229474510997534
0	5240	0.0052352105267345905
0	5364	0.023205040022730827
0	5958	0.11119014024734497
0	5670	-0.05371931567788124
0	5180	-0.09124993532896042
1	4360	-0.15290901064872742
0	4866	0.0949450209736824
0	5356	0.09223471581935883
0	5476	0.02258044295012951
0	5452	-0.0045113349333405495
0	5426	-0.004883423913270235
0	5460	0.006381541024893522
0	5440	-0.0037510786205530167
0	5486	0.008619935251772404
0	5472	-0.0026207412593066692
0	5470	-0.00037403684109449387
0	5474	0.000747337588109076
0	5446	-0.005227131303399801
0	5474	0.005224140360951424
0	5452	-0.004103711806237698
0	5476	0.004475830588489771
0	5464	-0.0022378317080438137
0	5476	0.0022376927081495523
0	5522	0.008579208515584469
0	5508	-0.002609603339806199
0	5558	0.009310293942689896
0	5578	0.0037181631196290255
0	5564	-0.0025968565605580807
0	5576	0.0022205773275345564
0	5502	-0.01366523839533329
0	5498	-0.0007373453117907047
0	5420	-0.014355476014316082
0	5342	-0.014350545592606068
0	5290	-0.009603309445083141
0	5182	-0.019992101937532425
0	5176	-0.0011106586316600442
0	5144	-0.005893837194889784
0	5114	-0.005516057834029198
0	5158	0.00810223538428545
0	5152	-0.0011070111067965627
0	5182	0.00554528646171093
0	5182	0.0
0	5224	0.007788450922816992
0	5224	0.0
0	5230	0.0011159330606460571
0	5286	0.010431024245917797
0	5264	-0.004102589562535286
0	5312	0.008962804451584816
0	5322	0.0018688095733523369
0	5334	0.0022446969524025917
0	5370	0.006739049218595028
0	5364	-0.0011239182204008102
0	5366	0.0003748734889086336
0	5354	-0.002250787802040577
0	5364	0.0018776286160573363
0	5346	-0.0033827803563326597
0	5326	-0.003763643093407154
0	5356	0.005654403008520603
0	5346	-0.0018872673390433192
0	5342	-0.0007560007506981492
0	5314	-0.005297345109283924
0	5322	0.0015152854612097144
0	5316	-0.0011371676810085773
0	5336	0.0037911818362772465
0	5338	0.0003790080372709781
0	5298	-0.007572697941213846
0	5340	0.007945215329527855
0	5338	-0.00037787656765431166
0	5352	0.0026414096355438232
0	5348	-0.0007537688943557441
0	5388	0.007528419606387615
0	5444	0.010526183061301708
0	5442	-0.0003753190394490957
0	5458	0.002998463110998273
0	5518	0.011227824725210667
0	5502	-0.002988717518746853
0	5434	-0.012684989720582962
0	5340	-0.017516614869236946
0	5266	-0.013787278905510902
0	5182	-0.015655869618058205
0	5182	0.0
0	5230	0.008965147659182549
0	5182	-0.008972633630037308
0	5254	0.013474398292601109
0	5280	0.004868792369961739
0	5750	0.0880589559674263
0	6232	0.09007999300956726
0	5530	-0.1304590255022049
1	4550	-0.1819261908531189
0	4640	0.016790209338068962
0	5110	0.08806665241718292
0	5518	0.07654688507318497
0	5456	-0.011617884039878845
0	5482	0.004867759067565203
0	5474	-0.001496408600360155
0	5470	-0.0007475704187527299
0	5468	-0.00037338511901907623
0	5474	0.0011192638194188476
0	5514	0.007455453276634216
0	5476	-0.007075559347867966
0	5514	0.007069943007081747
0	5466	-0.008923481218516827
0	5480	0.0026023273821920156
0	5474	-0.0011150204809382558
0	5494	0.003716366831213236
0	5490	-0.0007433838909491897
0	5490	0.0
0	5534	0.008174994960427284
0	5498	-0.006680605001747608
0	5568	0.012971450574696064
0	5552	-0.0029578504618257284
0	5590	0.007008914835751057
0	5582	-0.0014723023632541299
0	5532	-0.009179364889860153
0	5510	-0.004032060969620943
0	5462	-0.008784880861639977
0	5396	-0.012100470252335072
0	5280	-0.021376708522439003
0	5214	-0.012181317433714867
0	5152	-0.011396500281989574
0	5102	-0.009161983616650105
0	5130	0.005130961537361145
0	5128	-0.000367367931175977
0	5152	0.00441728625446558
0	5152	0.0
0	5152	0.0
0	5210	0.010739017277956009
0	5182	-0.005192621611058712
0	5228	0.008546161465346813
0	5250	0.004094546660780907
0	5248	-0.00037275414797477424
0	5312	0.011947876773774624
0	5300	-0.0022423758637160063
0	5324	0.004489785525947809
0	5320	-0.0007489981944672763
0	5358	0.0071232193149626255
0	5342	-0.0030017259996384382
0	5350	0.0015022533480077982
0	5384	0.0063919383101165295
0	5348	-0.006772773806005716
0	5366	0.0033910649362951517
0	5332	-0.006412835791707039
0	5340	0.0015113541157916188
0	5344	0.0007568303844891489
0	5338	-0.0011365932878106833
0	5348	0.0018963816110044718
0	5324	-0.00455459812656045
0	5336	0.00227833678945899
0	5306	-0.005693824030458927
0	5334	0.005311144981533289
0	5326	-0.001515725627541542
0	5318	-0.0015135844005271792
0	5346	0.005291271954774857
0	5334	-0.002264578128233552
0	5354	0.0037699807435274124
0	5338	-0.0030121617019176483
0	5382	0.00827378686517477
0	5386	0.0007513524033129215
0	5468	0.01538307685405016
0	5390	-0.014610755257308483
0	5430	0.00748615013435483
0	5470	0.007477660663425922
0	5502	0.00597624434158206
0	5516	0.00261132325977087
0	5350	-0.030925914645195007
0	5344	-0.001117595937103033
0	5226	-0.021981297060847282
0	5166	-0.011184986680746078
0	5204	0.007091933395713568
0	5182	-0.004110459238290787
0	5240	0.010847880505025387
0	5206	-0.00636410154402256
0	5704	0.09328871220350266
0	6174	0.08784390240907669
0	5498	-0.12569572031497955
0	4772	-0.13485901057720184
0	4198	-0.10700570046901703
0	4818	0.1163954958319664
0	5354	0.10095302760601044
0	5468	0.021464884281158447
0	5450	-0.003386344062164426
0	5460	0.001879840507172048
0	5480	0.003756338730454445
0	5464	-0.003002552315592766
0	5492	0.0052501969039440155
0	5518	0.004870981443673372
0	5482	-0.006736862938851118
0	5502	0.0037403684109449387
0	5486	-0.002990132663398981
0	5536	0.009343116544187069
0	5474	-0.011574938893318176
0	5494	0.003732828889042139
0	5472	-0.004105499014258385
0	5502	0.005599452648311853
0	5554	0.009706562384963036
0	5534	-0.00372856087051332
0	5580	0.008565575815737247
0	5560	-0.003715998725965619
0	5584	0.00444834353402257
0	5594	0.001849135267548263
0	5592	-0.00036889026523567736
0	5572	-0.003680936526507139
0	5466	-0.019465256482362747
0	5470	0.000735609675757587
0	5326	-0.02659672684967518
0	5232	-0.017380157485604286
0	5182	-0.009218629449605942
0	5126	-0.010262800380587578
0	5080	-0.00841432623565197
0	5106	0.004763882607221603
0	5076	-0.00550896767526865
0	5152	0.013988072983920574
0	5152	0.0
0	5182	0.0055432370863854885
0	5218	0.006663458421826363
0	5206	-0.0022249140311032534
0	5266	0.011146062053740025
0	5282	0.002976264338940382
0	5310	0.005215577315539122
0	5332	0.004102436825633049
0	5314	-0.003360800677910447
0	5354	0.007475890219211578
0	5346	-0.0014964832225814462
0	5390	0.008237130008637905
0	5364	-0.004870799370110035
0	5386	0.0041263410821557045
0	5384	-0.00037546936073340476
0	5330	-0.01015012152493
0	5346	0.0030117835849523544
0	5320	-0.004901467822492123
0	5356	0.006798353511840105
0	5334	-0.004160730168223381
0	5322	-0.0022728994954377413
0	5330	0.001516645192168653
0	5342	0.002276982180774212
0	5322	-0.003794586518779397
0	5316	-0.0011377283371984959
0	5338	0.004168140236288309
0	5350	0.0022704910952597857
0	5324	-0.004911034367978573
0	5340	0.0030180327594280243
0	5340	0.0
0	5344	0.0007523699896410108
0	5338	-0.0011271981056779623
0	5344	0.0011260979808866978
0	5360	0.0030005625449121
0	5410	0.009367739781737328
0	5430	0.0037437293212860823
0	5450	0.0037402750458568335
0	5496	0.008595132268965244
0	5542	0.008586361072957516
0	5466	-0.01416606642305851
0	5396	-0.013038619421422482
0	5298	-0.01824840158224106
0	5244	-0.010060987435281277
0	5182	-0.01156011875718832
0	5176	-0.001120141358114779
0	5222	0.008598880842328072
0	5238	0.0029929294250905514
0	5272	0.006364260334521532
0	5560	0.053925178945064545
0	6210	0.12155137211084366
0	5626	-0.10861613601446152
0	4950	-0.12549038231372833
0	4214	-0.13695061206817627
0	4550	0.06296143680810928
0	5182	0.11900129169225693
0	5502	0.060304537415504456
0	5452	-0.009412886574864388
0	5462	0.0018813732312992215
0	5430	-0.006015188526362181
0	5478	0.009017697535455227
0	5462	-0.003003303660079837
0	5452	-0.0018756799399852753
0	5478	0.00487329438328743
0	5448	-0.005618328228592873
0	5468	0.0037434955593198538
0	5430	-0.007110069040209055
0	5484	0.010103782638907433
0	5468	-0.0029930786695331335
0	5466	-0.0003742001426871866
0	5492	0.004866908770054579
0	5480	-0.0022459011524915695
0	5530	0.00935302022844553
0	5510	-0.0037358037661761045
0	5554	0.008205179125070572
0	5550	-0.0007442045025527477
0	5576	0.004826135002076626
0	5574	-0.0003704298287630081
0	5486	-0.01626517064869404
0	5460	-0.004799291025847197
0	5364	-0.01773137040436268
0	5272	-0.01708153448998928
0	5236	-0.006698754616081715
0	5182	-0.010030338540673256
0	5182	0.0
0	5126	-0.010299798101186752
0	5170	0.00809547770768404
0	5158	-0.0022123621311038733
0	5134	-0.004432733170688152
0	5174	0.0074028377421200275
0	5154	-0.0037072738632559776
0	5214	0.011144130490720272
0	5242	0.005208591464906931
0	5232	-0.0018626367673277855
0	5300	0.012685305438935757
0	5300	0.0
0	5340	0.007476635742932558
0	5352	0.0022442492190748453
0	5380	0.0052408939227461815
0	5414	0.006367438938468695
0	5382	-0.005994829814881086
0	5402	0.0037493437994271517
0	5366	-0.006752110086381435
0	5394	0.005257030948996544
0	5326	-0.012776350602507591
0	5348	0.004139436408877373
0	5362	0.0026375283487141132
0	5300	-0.01169620081782341
0	5334	0.006425115745514631
0	5290	-0.008322824724018574
0	5304	0.0026510129682719707
0	5298	-0.0011365788523107767
0	5304	0.00113639235496521
0	5342	0.007194063160568476
0	5286	-0.010591083206236362
0	5348	0.011718159541487694
0	5332	-0.003019817406311631
0	5324	-0.001508371438831091
0	5354	0.0056504979729652405
0	5304	-0.009404506534337997
0	5374	0.013155587017536163
0	5354	-0.003753565950319171
0	5424	0.01312598492950201
0	5444	0.003746019909158349
0	5432	-0.002244640840217471
0	5478	0.008597380481660366
0	5498	0.003733851248398423
0	5556	0.010817532427608967
0	5498	-0.01080382987856865
0	5366	-0.024570025503635406
0	5342	-0.004468608181923628
0	5182	-0.02979811653494835
0	5226	0.008205689489841461
0	5182	-0.00821283645927906
0	5250	0.012709330767393112
0	5210	-0.007479617837816477
0	5256	0.008608966134488583
0	5488	0.043447863310575485
0	6174	0.12832023203372955
0	5740	-0.0807592123746872
0	5094	-0.11987381428480148
1	4204	-0.1653660386800766
0	4978	0.1447937935590744
0	5416	0.08210447430610657
0	5442	0.004871529061347246
0	5416	-0.0048667872324585915
0	5428	0.0022452569101005793
0	5470	0.007853697054088116
0	5434	-0.00672562001273036
0	5498	0.011950703337788582
0	5448	-0.00932522676885128
0	5478	0.005592563189566135
0	5492	0.0026078533846884966
0	5468	-0.004468719009310007
0	5448	-0.003723377827554941
0	5476	0.005212211515754461
0	5480	0.0007446109084412456
0	5470	-0.0018617351306602359
0	5476	0.0011176374973729253
0	5518	0.007824531756341457
0	5534	0.0029779630713164806
0	5536	0.0003718024818226695
0	5620	0.015581524930894375
0	5566	-0.00999235175549984
0	5540	-0.004799764137715101
0	5506	-0.0062654330395162106
0	5454	-0.009565035812556744
0	5388	-0.01212551724165678
0	5272	-0.021324574947357178
0	5234	-0.007024462800472975
0	5178	-0.010384215973317623
0	5156	-0.004077396355569363
0	5152	-0.000737010152079165
0	5130	-0.004049228969961405
0	5138	0.0014750349801033735
0	5114	-0.004433388356119394
0	5156	0.007772883865982294
0	5160	0.0007415188592858613
0	5182	0.004086181055754423
0	5236	0.010045389644801617
0	5226	-0.0018632846185937524
0	5276	0.009329286403954029
0	5294	0.0033627678640186787
0	5352	0.01084896270185709
0	5366	0.0026206104084849358
0	5374	0.0014982583234086633
0	5410	0.006746458355337381
0	5352	-0.010874048806726933
0	5384	0.006003902293741703
0	5366	-0.003379139583557844
0	5388	0.004133991431444883
0	5358	-0.005642421077936888
0	5348	-0.0018829082837328315
0	5354	0.0011316768359392881
0	5306	-0.009065498597919941
0	5334	0.005296009127050638
0	5296	-0.007195243611931801
0	5308	0.0022744503803551197
0	5342	0.006447534542530775
0	5308	-0.00644468329846859
0	5356	0.009094124659895897
0	5350	-0.0011354890884831548
0	5328	-0.00415837112814188
0	5358	0.005664224736392498
0	5354	-0.0007541478262282908
0	5336	-0.0033890644554048777
0	5378	0.007896814495325089
0	5324	-0.010138940997421741
0	5386	0.011629070155322552
0	5350	-0.0067437621764838696
0	5380	0.005615803878754377
0	5434	0.010098743252456188
0	5440	0.0011209785006940365
0	5468	0.005226480774581432
0	5460	-0.001492203213274479
0	5518	0.010812154039740562
0	5518	0.0
0	5400	-0.02196275070309639
0	5350	-0.009303479455411434
0	5230	-0.022333059459924698
0	5210	-0.003725319867953658
0	5174	-0.006712994538247585
0	5224	0.009334279224276543
0	5236	0.002241957001388073
0	5254	0.003365408629179001
0	5556	0.05648238584399223
0	6168	0.11430278420448303
0	5908	-0.048297811299562454
0	5258	-0.12029759585857391
1	4282	-0.1807251125574112
0	4840	0.10398291051387787
0	5356	0.09646542370319366
0	5452	0.017946384847164154
0	5452	0.0
0	5446	-0.0011201275046914816
0	5448	0.00037316218367777765
0	5472	0.004474828951060772
0	5460	-0.002236108062788844
0	5490	0.00558555219322443
0	5448	-0.007814728654921055
0	5492	0.008181885816156864
0	5438	-0.010034439153969288
0	5474	0.0066894604824483395
0	5466	-0.0014862337848171592
0	5464	-0.00037156304460950196
0	5498	0.006316415499895811
0	5486	-0.0022295992821455
0	5530	0.008176817558705807
0	5498	-0.005941991228610277
0	5548	0.009275863878428936
0	5590	0.007776434067636728
0	5550	-0.0073887985199689865
0	5606	0.010320425033569336
0	5526	-0.014708946458995342
0	5534	0.001468285103328526
0	5438	-0.01758928969502449
0	5360	-0.014301605522632599
0	5322	-0.007002026773989201
0	5228	-0.01738337054848671
0	5206	-0.004069201182574034
0	5110	-0.017655929550528526
0	5164	0.009915049187839031
0	5128	-0.006617809180170298
0	5152	0.0044206492602825165
0	5172	0.0036906723398715258
0	5126	-0.008502877317368984
0	5182	0.01037190668284893
0	5182	0.0
0	5258	0.014125694520771503
0	5274	0.002978110918775201
0	5266	-0.0014906646683812141
0	5334	0.012688460759818554
0	5304	-0.005601473618298769
0	5362	0.010840985924005508
0	5348	-0.002618486527353525
0	5350	0.00037434021942317486
0	5370	0.003746862057596445
0	5368	-0.0003749578318092972
0	5394	0.004879391752183437
0	5358	-0.006760478485375643
0	5372	0.002632205607369542
0	5354	-0.0033888944890350103
0	5354	0.0
0	5336	-0.003398449392989278
0	5318	-0.003402517642825842
0	5352	0.006435737479478121
0	5338	-0.00265144812874496
0	5350	0.002272985642775893
0	5346	-0.0007575278868898749
0	5342	-0.0007569640874862671
0	5368	0.00491604907438159
0	5356	-0.002265262184664607
0	5376	0.0037708813324570656
0	5346	-0.005647519137710333
0	5382	0.006768783554434776
0	5340	-0.007886534556746483
0	5382	0.007875984534621239
0	5362	-0.003745785914361477
0	5346	-0.0029932651668787003
0	5436	0.016827881336212158
0	5444	0.0014943029964342713
0	5446	0.00037316218367777765
0	5474	0.005220633931457996
0	5496	0.00409759720787406
0	5560	0.011910374276340008
0	5444	-0.021559201180934906
0	5370	-0.013745279051363468
0	5332	-0.007058386690914631
0	5182	-0.02786826342344284
0	5182	0.0
0	5178	-0.0007449437398463488
0	5234	0.010441786609590054
0	5222	-0.0022391958627849817
0	5270	0.008964143693447113
0	5542	0.050817690789699554
0	6230	0.1283598095178604
0	5678	-0.10242707282304764
0	5074	-0.11184080690145493
1	4186	-0.16470879316329956
0	4978	0.14796364307403564
0	5406	0.0801418125629425
0	5484	0.014601820148527622
0	5432	-0.009726776741445065
0	5472	0.007479525171220303
0	5424	-0.008968386799097061
0	5452	0.005230190698057413
0	5508	0.01045309193432331
0	5476	-0.005968515761196613
0	5520	0.00820089690387249
0	5486	-0.006330213509500027
0	5478	-0.0014890000456944108
0	5486	0.0014886859571561217
0	5494	0.0014883166877552867
0	5500	0.0011160990688949823
0	5490	-0.0018601190531626344
0	5498	0.0014887414872646332
0	5506	0.0014882428804412484
0	5544	0.00706319697201252
0	5552	0.0014850381994619966
0	5584	0.005926584359258413
0	5624	0.0073898909613490105
0	5564	-0.01105447392910719
0	5562	-0.00036773720057681203
0	5482	-0.014678899198770523
0	5448	-0.0062304530292749405
0	5404	-0.008067572489380836
0	5258	-0.026905499398708344
0	5182	-0.014041829854249954
0	5140	-0.007754800375550985
0	5110	-0.005506810266524553
0	5130	0.0036682437639683485
0	5098	-0.005879110656678677
0	5138	0.007366301491856575
0	5152	0.002582866931334138
0	5180	0.005175919737666845
0	5238	0.010737692005932331
0	5232	-0.0011122645810246468
0	5280	0.008913317695260048
0	5276	-0.0007436787709593773
0	5318	0.007820452563464642
0	5312	-0.0011183737078681588
0	5320	0.0014927043812349439
0	5410	0.016810281202197075
0	5354	-0.01046520285308361
0	5394	0.007481949403882027
0	5358	-0.006737787742167711
0	5354	-0.0007492974982596934
0	5358	0.0007500093779526651
0	5310	-0.009010586887598038
0	5342	0.006016168277710676
0	5322	-0.003765816567465663
0	5328	0.0011318903416395187
0	5298	-0.005667863413691521
0	5288	-0.0018924339674413204
0	5314	0.004926357418298721
0	5286	-0.005309801548719406
0	5324	0.007211538031697273
0	5312	-0.002276377519592643
0	5372	0.011372539214789867
0	5332	-0.007570595480501652
0	5336	0.0007560007506981492
0	5356	0.0037751044146716595
0	5344	-0.002261391608044505
0	5374	0.005646172910928726
0	5362	-0.002255328232422471
0	5382	0.0037545994855463505
0	5414	0.006001950707286596
0	5430	0.0029975646175444126
0	5422	-0.0014973796205595136
0	5398	-0.004488050471991301
0	5492	0.017569435760378838
0	5516	0.004480788484215736
0	5476	-0.007458882872015238
0	5368	-0.02013072557747364
0	5324	-0.008200693875551224
0	5228	-0.01790020614862442
0	5156	-0.013436011038720608
0	5208	0.009715751744806767
0	5212	0.0007480643689632416
0	5208	-0.0007485216483473778
0	5278	0.013110087253153324
0	5666	0.0726873129606247
0	6218	0.103192999958992
0	5550	-0.12416664510965347
1	4726	-0.15291541814804077
0	4476	-0.04656360670924187
0	4994	0.0969674289226532
0	5366	0.06978052854537964
0	5478	0.02100210078060627
0	5432	-0.008620151318609715
0	5476	0.008240214549005032
0	5432	-0.008233019150793552
0	5470	0.007106965873390436
0	5484	0.0026163007132709026
0	5456	-0.0052290186285972595
0	5476	0.003732828889042139
0	5456	-0.0037306472659111023
0	5500	0.00820528157055378
0	5440	-0.011184153147041798
0	5470	0.0055914511904120445
0	5492	0.004098564386367798
0	5470	-0.004098564386367798
0	5498	0.005217844620347023
0	5476	-0.004099175333976746
0	5514	0.007075647357851267
0	5556	0.00781124085187912
0	5526	-0.005568135529756546
0	5578	0.009629392065107822
0	5496	-0.01515020802617073
0	5496	0.0
0	5414	-0.015097026713192463
0	5404	-0.00183956534601748
0	5346	-0.010686647146940231
0	5254	-0.017042508348822594
0	5246	-0.0014846707927063107
0	5168	-0.0144291240721941
0	5152	-0.0029472443275153637
0	5176	0.004416581708937883
0	5154	-0.004053257405757904
0	5182	0.005168976727873087
0	5164	-0.003328033024445176
0	5226	0.011485309340059757
0	5214	-0.0022257943637669086
