0	5300	0.0014605114702135324
0	5598	0.054560769349336624
0	6588	0.18144938349723816
0	6554	-0.006201512645930052
1	4368	-0.3969109058380127
0	4368	0.0
0	5588	0.22548885643482208
0	5702	0.02110355719923973
0	5692	-0.0018523777835071087
0	5692	0.0
0	5710	0.0033379073720425367
0	5712	0.00037065407377667725
0	5718	0.001110179116949439
0	5756	0.007011846639215946
0	5746	-0.0018387084128335118
0	5772	0.004761846270412207
0	5750	-0.004012060351669788
0	5770	0.0036330167204141617
0	5814	0.007961783558130264
0	5796	-0.0032447243575006723
0	5824	0.005033979192376137
0	5820	-0.0007173858466558158
0	5880	0.010737935081124306
0	5866	-0.0024991075042635202
0	5862	-0.0007122422102838755
0	5866	0.0007105889380909503
0	5810	-0.009921923279762268
0	5794	-0.0028269216418266296
0	5704	-0.01585567742586136
0	5504	-0.035146914422512054
0	5344	-0.028082655742764473
0	5182	-0.02842637337744236
0	5088	-0.01653454639017582
0	5070	-0.003194283228367567
0	5112	0.007519335485994816
0	5152	0.007129616569727659
0	5166	0.002483796328306198
0	5260	0.01671864092350006
0	5354	0.016762565821409225
0	5436	0.014652101323008537
0	5446	0.0017895704368129373
0	5476	0.005377179477363825
0	5488	0.002153908833861351
0	5480	-0.0014379178173840046
0	5428	-0.009361947886645794
0	5332	-0.01731664314866066
0	5284	-0.008681287989020348
0	5306	0.0039901332929730415
0	5282	-0.004365117754787207
0	5306	0.004379242658615112
0	5714	0.07466965913772583
0	6690	0.1787414848804474
0	6380	-0.056472476571798325
1	4418	-0.35633420944213867
0	4318	-0.018322400748729706
0	5640	0.24452801048755646
0	5708	0.01259539183229208
0	5692	-0.0029654891695827246
0	5716	0.004451038781553507
0	5672	-0.008159631863236427
0	5716	0.008151167072355747
0	5756	0.00739316875115037
0	5734	-0.004051913507282734
0	5754	0.0036690065171569586
0	5766	0.002192234620451927
0	5776	0.0018196154851466417
0	5782	0.0010876527521759272
0	5772	-0.001806032145395875
0	5796	0.004321157932281494
0	5794	-0.00035914379986934364
0	5844	0.008959395810961723
0	5822	-0.003932785242795944
0	5838	0.002854322548955679
0	5844	0.0010681478306651115
0	5808	-0.006395073141902685
0	5804	-0.0007089684368111193
0	5778	-0.004595479927957058
0	5688	-0.01586126536130905
0	5572	-0.02039763703942299
0	5342	-0.040374960750341415
0	5232	-0.019305696710944176
0	5128	-0.01830427348613739
0	5108	-0.003552608424797654
0	5078	-0.005369351711124182
0	5114	0.006417951546609402
0	5170	0.009936477988958359
0	5210	0.007117269095033407
0	5282	0.012849035672843456
0	5386	0.018605094403028488
0	5440	0.009679385460913181
0	5478	0.006820874288678169
0	5446	-0.005752084776759148
0	5468	0.003961917478591204
0	5456	-0.0021645021624863148
0	5428	-0.005059570074081421
0	5336	-0.01665821671485901
0	5270	-0.011982280761003494
0	5294	0.004370735492557287
0	5294	0.0
0	5320	0.004763300530612469
0	5682	0.0665123239159584
0	6632	0.17472228407859802
0	6442	-0.03477178514003754
1	4588	-0.3380538523197174
0	4230	-0.06577899307012558
0	5510	0.2374826818704605
0	5702	0.035687290132045746
0	5700	-0.00037191773299127817
0	5724	0.004462681245058775
0	5718	-0.001114620128646493
0	5730	0.00222406187094748
0	5734	0.0007390800747089088
0	5740	0.0011044976999983191
0	5754	0.002567205810919404
0	5758	0.000730469124391675
0	5798	0.007276167161762714
0	5774	-0.004349139053374529
0	5752	-0.003973174840211868
0	5770	0.0032416079193353653
0	5784	0.0025154519826173782
0	5816	0.005737782921642065
0	5840	0.0042946613393723965
0	5880	0.007140986621379852
0	5842	-0.00676734559237957
0	5818	-0.004264341667294502
0	5816	-0.00035454286262393
0	5822	0.0010606202995404601
0	5734	-0.015505332499742508
0	5590	-0.02530696429312229
0	5402	-0.03298245742917061
0	5284	-0.020691832527518272
0	5156	-0.022497715428471565
0	5124	-0.005673490464687347
0	5080	-0.007862290367484093
0	5140	0.010689978487789631
0	5204	0.01134135015308857
0	5246	0.0074562388472259045
0	5292	0.008188453502953053
0	5324	0.005710138939321041
0	5410	0.015382597222924232
0	5442	0.005734287202358246
0	5498	0.01005229540169239
0	5536	0.006830846890807152
0	5488	-0.008638997562229633
0	5534	0.008292272686958313
0	5520	-0.0025271365884691477
0	5400	-0.02169746533036232
0	5326	-0.013410331681370735
0	5328	0.0003633765154518187
0	5340	0.0021861109416931868
0	5326	-0.00255735800601542
0	5420	0.017222214490175247
0	6122	0.12894771993160248
0	6842	0.13205839693546295
1	5822	-0.18594588339328766
0	3260	-0.4670409858226776
0	5012	0.32442042231559753
0	5668	0.12208285182714462
0	5710	0.007819481194019318
0	5706	-0.0007441583438776433
0	5704	-0.0003713790501933545
0	5706	0.00037041609175503254
0	5706	0.0
0	5706	0.0
0	5716	0.0018321954412385821
0	5728	0.002190927043557167
0	5740	0.002183962380513549
0	5742	0.000362906139343977
0	5746	0.0007238421239890158
0	5784	0.006859040819108486
0	5800	0.0028815330006182194
0	5790	-0.0017970959888771176
0	5800	0.0017939580138772726
0	5846	0.0082391994073987
0	5838	-0.0014298480236902833
0	5848	0.001784078893251717
0	5820	-0.004985695704817772
0	5804	-0.0028418845031410456
0	5760	-0.007793128024786711
0	5656	-0.018373260274529457
0	5508	-0.026097998023033142
0	5304	-0.03593447059392929
0	5196	-0.019037099555134773
0	5142	-0.009570621885359287
0	5106	-0.006445144768804312
0	5116	0.0017980006523430347
0	5140	0.004267728887498379
0	5182	0.007462863344699144
0	5226	0.007840808480978012
0	5248	0.003931707702577114
0	5296	0.008601740002632141
0	5358	0.011137724854052067
0	5446	0.015841392800211906
0	5502	0.010096639394760132
0	5490	-0.002166221383959055
0	5478	-0.002169171115383506
0	5444	-0.006155257113277912
0	5500	0.010156212374567986
0	5482	-0.0032692798413336277
0	5384	-0.01782790571451187
0	5338	-0.008388548158109188
0	5302	-0.006583439186215401
0	5334	0.005869405809789896
0	5354	0.0036788599099963903
0	5434	0.014759965240955353
0	6290	0.15832500159740448
0	6838	0.10108213871717453
1	5456	-0.253333181142807
0	3600	-0.34094667434692383
0	5252	0.30753958225250244
0	5678	0.07950431108474731
0	5708	0.005592979956418276
0	5728	0.003719315631315112
0	5716	-0.0022242541890591383
0	5718	0.0003693989710882306
0	5730	0.0022080740891397
0	5706	-0.004399579484015703
0	5698	-0.0014614720130339265
0	5764	0.012019377201795578
0	5738	-0.0047194925136864185
0	5750	0.0021717885974794626
0	5764	0.0025268325116485357
0	5748	-0.002880771877244115
0	5770	0.003953895065933466
0	5762	-0.0014354753075167537
0	5796	0.006090861279517412
0	5828	0.005721710156649351
0	5812	-0.002854322548955679
0	5852	0.007122592069208622
0	5850	-0.0003553491842467338
0	5796	-0.00956802163273096
0	5706	-0.01590368151664734
0	5564	-0.025032907724380493
0	5404	-0.028168020769953728
0	5266	-0.024287791922688484
0	5160	-0.018674246966838837
0	5132	-0.004965771455317736
0	5094	-0.00680792098864913
0	5130	0.006463582627475262
0	5216	0.015300676226615906
0	5228	0.00213543395511806
0	5270	0.007494022604078054
0	5322	0.009302547201514244
0	5322	0.0
0	5318	-0.0007190105970948935
0	5356	0.006847011391073465
0	5396	0.007223607040941715
0	5414	0.0032567002344876528
0	5512	0.017761345952749252
0	5514	0.0003630291030276567
0	5514	0.0
0	5510	-0.0007280846475623548
0	5568	0.010573522187769413
0	5556	-0.002190020866692066
0	5476	-0.014619170688092709
0	5390	-0.015743033960461617
0	5356	-0.006239447742700577
0	5342	-0.002576623810455203
0	5356	0.002584074856713414
0	5384	0.005183969158679247
0	5980	0.11066273599863052
0	6998	0.18880288302898407
0	6392	-0.11150091141462326
1	4452	-0.355146586894989
0	4228	-0.04124622792005539
0	5470	0.23016196489334106
0	5702	0.042911045253276825
0	5684	-0.0033176462166011333
0	5686	0.0003672959574032575
0	5690	0.0007321001612581313
0	5688	-0.00036499460111372173
0	5716	0.005095664877444506
0	5706	-0.001814969815313816
0	5700	-0.0010864579817280173
0	5702	0.0003613282460719347
0	5692	-0.001802473096176982
0	5728	0.006475829519331455
0	5736	0.0014362140791490674
0	5752	0.002866904018446803
0	5756	0.0007157000945881009
0	5786	0.005360014270991087
0	5818	0.00570810167118907
0	5820	0.00035610419581644237
0	5832	0.0021334344055503607
0	5814	-0.0031949260737746954
0	5822	0.0014171331422403455
0	5810	-0.0021202911157160997
0	5754	-0.009868305176496506
0	5682	-0.012657188810408115
0	5424	-0.04526844993233681
0	5274	-0.02631271257996559
0	5142	-0.02325117215514183
0	5072	-0.012466015294194221
0	5040	-0.005743756890296936
0	5056	0.0028618103824555874
0	5100	0.00783131830394268
0	5158	0.01034581195563078
0	5202	0.007874015718698502
0	5236	0.006102011539041996
0	5256	0.0035991074983030558
0	5306	0.009021254256367683
0	5330	0.004340173210948706
0	5358	0.005075344815850258
0	5390	0.005812616087496281
0	5388	-0.00036397165968082845
0	5386	-0.00036466625169850886
0	5416	0.005480186082422733
0	5488	0.013177481479942799
0	5526	0.006965320091694593
0	5540	0.0025697187520563602
0	5566	0.004778650589287281
0	5574	0.0014723384520038962
0	5598	0.004423636943101883
0	5584	-0.002583979396149516
0	5474	-0.02033371850848198
0	5434	-0.007409602869302034
0	5414	-0.0037136985920369625
0	5394	-0.0037228234577924013
0	5430	0.006716083735227585
0	5528	0.01831136830151081
0	6464	0.1747790277004242
0	6698	0.04337349534034729
1	4992	-0.31320759654045105
0	3704	-0.23658204078674316
0	5260	0.28816595673561096
0	5702	0.08175394684076309
0	5688	-0.0025799160357564688
0	5706	0.0033062708098441362
0	5714	0.001464933156967163
0	5722	0.0014606714248657227
0	5716	-0.00109240529127419
0	5756	0.007264626212418079
0	5750	-0.0010868908138945699
0	5746	-0.0007228828617371619
0	5750	0.0007213359349407256
0	5752	0.00035988481249660254
0	5696	-0.010054702870547771
0	5748	0.009320889599621296
0	5760	0.002147638238966465
0	5778	0.0032169665209949017
0	5808	0.005354019813239574
0	5836	0.004989901091903448
0	5812	-0.004270412027835846
0	5816	0.0007108330610208213
0	5818	0.00035492877941578627
0	5800	-0.003187872003763914
0	5756	-0.0077757746912539005
0	5656	-0.017636684700846672
0	5526	-0.022892428562045097
0	5356	-0.029919395223259926
0	5222	-0.023607341572642326
0	5140	-0.014552424661815166
0	5112	-0.005015344358980656
0	5094	-0.00322184176184237
0	5174	0.014201519079506397
0	5166	-0.0014208749635145068
0	5194	0.0049888938665390015
0	5232	0.006790564861148596
0	5266	0.0060929711908102036
0	5316	0.008984295651316643
0	5322	0.0010807435028254986
0	5364	0.007583143655210733
0	5380	0.0028956481255590916
0	5386	0.0010882971109822392
0	5404	0.003272013273090124
0	5408	0.0007286416948772967
0	5424	0.0029206671752035618
0	5446	0.004022574983537197
0	5446	0.0
0	5512	0.012113203294575214
0	5544	0.005882641300559044
0	5622	0.014362173154950142
0	5642	0.0036874518264085054
0	5580	-0.011443055234849453
0	5578	-0.00036966754123568535
0	5568	-0.0018510748632252216
0	5428	-0.02595219947397709
0	5390	-0.0070584737695753574
0	5364	-0.004837449174374342
0	5378	0.0026074000634253025
0	5390	0.0022346090991050005
0	5470	0.014881875365972519
0	6580	0.2060643583536148
0	7046	0.08573110401630402
1	5624	-0.2585141360759735
0	3706	-0.34773674607276917
0	5280	0.28790926933288574
0	5690	0.07495612651109695
0	5706	0.0029169756453484297
0	5718	0.0021818976383656263
0	5690	-0.005078719928860664
0	5724	0.006153326481580734
0	5734	0.0018058798741549253
0	5686	-0.008649791590869427
0	5728	0.0075549534521996975
0	5758	0.005385931581258774
0	5768	0.0017915581120178103
0	5748	-0.003575770417228341
0	5760	0.0021416079252958298
0	5758	-0.00035626915632747114
0	5744	-0.002490246668457985
0	5736	-0.0014213125687092543
0	5750	0.0024856189265847206
0	5752	0.0003548616077750921
0	5800	0.00850802380591631
0	5796	-0.0007080732029862702
0	5820	0.004242731258273125
0	5778	-0.007407668977975845
0	5770	-0.001407773233950138
0	5736	-0.0059688217006623745
0	5668	-0.011912686750292778
0	5520	-0.02588558942079544
0	5340	-0.031473301351070404
0	5174	-0.029236678034067154
0	5108	-0.011753392405807972
0	5086	-0.003929834347218275
0	5080	-0.0010630381293594837
0	5084	0.0007095301989465952
0	5156	0.01281746942549944
0	5196	0.007144133094698191
0	5234	0.0068080835044384
0	5288	0.009701063856482506
0	5300	0.0021614350844174623
0	5378	0.014086033217608929
0	5398	0.0036185123026371002
0	5380	-0.0032631554640829563
0	5408	0.005087640602141619
0	5404	-0.0007283940212801099
0	5436	0.005839344579726458
0	5456	0.003656797343865037
0	5426	-0.005495310295373201
0	5452	0.0047718677669763565
0	5496	0.008089523762464523
0	5526	0.005524183623492718
0	5588	0.011432505212724209
0	5620	0.005908346734941006
0	5604	-0.002957376651465893
0	5580	-0.004441976547241211
0	5606	0.0048180269077420235
0	5520	-0.015952711924910545
0	5398	-0.02266085520386696
0	5360	-0.007070118095725775
0	5326	-0.006332178600132465
0	5366	0.0074502695351839066
0	5388	0.004092769231647253
0	5736	0.06462796032428741
0	6964	0.22714100778102875
0	6626	-0.06180138140916824
1	4802	-0.3304028809070587
0	3784	-0.184797465801239
0	5322	0.2815990447998047
0	5692	0.06770852208137512
0	5738	0.008397122845053673
0	5730	-0.0014564874581992626
0	5722	-0.00145338277798146
0	5726	0.0007252683280967176
0	5720	-0.0010856322478502989
0	5724	0.0007223954889923334
0	5720	-0.0007210065377876163
0	5726	0.0010796674760058522
0	5738	0.0021558436565101147
0	5746	0.001434548757970333
0	5740	-0.0010740241268649697
0	5736	-0.0007149751181714237
0	5756	0.0035704083275049925
0	5754	-0.00035668426426127553
0	5756	0.0003564003563951701
0	5810	0.009614129550755024
0	5792	-0.0032003414817154408
0	5806	0.0024864135775715113
0	5814	0.001418406143784523
0	5792	-0.0038910505827516317
0	5746	-0.008115164935588837
0	5728	-0.0031676755752414465
0	5598	-0.022829178720712662
0	5436	-0.028413740918040276
0	5274	-0.028463663533329964
0	5152	-0.021649887785315514
0	5066	-0.01539563201367855
0	5084	0.0032172733917832375
0	5084	0.0
0	5110	0.004617953207343817
0	5138	0.004990376066416502
0	5164	0.00465049734339118
0	5236	0.012921907007694244
0	5288	0.009359700605273247
0	5334	0.008301550522446632
0	5348	0.0025324393063783646
0	5376	0.00507638743147254
0	5372	-0.0007267089677043259
0	5364	-0.0014565404271706939
0	5408	0.008029197342693806
0	5422	0.0025600078515708447
0	5442	0.0036642563063651323
0	5446	0.000734169443603605
0	5462	0.002942258259281516
0	5466	0.0007368834922090173
0	5460	-0.0011072970228269696
0	5474	0.0025892681442201138
0	5552	0.014454258605837822
0	5548	-0.0007424088544212282
0	5604	0.010410857386887074
0	5668	0.011912000365555286
0	5618	-0.009310755878686905
0	5576	-0.00782637856900692
0	5568	-0.001490942551754415
0	5466	-0.018993942067027092
0	5404	-0.011531594209372997
0	5370	-0.006313913036137819
0	5390	0.0037070901598781347
0	5392	0.00037000951124355197
0	5384	-0.001477232202887535
0	5934	0.10138872265815735
0	7084	0.21096271276474
1	6234	-0.15411952137947083
0	3186	-0.5493409633636475
0	4764	0.28804031014442444
0	5604	0.1538630574941635
0	5692	0.01609383337199688
0	5718	0.004745853133499622
0	5710	-0.001457194914110005
0	5716	0.0010906050447374582
0	5734	0.0032657210249453783
0	5744	0.0018108724616467953
0	5754	0.0018075774423778057
0	5756	0.0003608458209782839
0	5736	-0.0036020891275256872
0	5752	0.0028770079370588064
0	5738	-0.0025129837449640036
0	5738	0.0
0	5766	0.005012471228837967
0	5762	-0.0007151370518840849
0	5770	0.001428928691893816
0	5804	0.006069261115044355
0	5840	0.006419171579182148
0	5828	-0.002136371796950698
0	5820	-0.0014220536686480045
0	5794	-0.004612000659108162
0	5780	-0.0024776714853942394
0	5756	-0.004237188491970301
0	5652	-0.0183216854929924
0	5520	-0.023218996822834015
0	5338	-0.031988564878702164
0	5224	-0.020107002928853035
0	5128	-0.01711942069232464
0	5114	-0.0025131041184067726
0	5082	-0.005678725894540548
0	5140	0.01027336623519659
0	5176	0.006394088733941317
0	5224	0.008551577106118202
0	5278	0.009648830629885197
0	5346	0.012181722559034824
0	5340	-0.001077238004654646
0	5378	0.00683863228186965
0	5398	0.0036071999929845333
0	5372	-0.004699417855590582
0	5400	0.0050726477056741714
0	5382	-0.0032676178961992264
0	5402	0.00363883376121521
0	5400	-0.0003646263503469527
0	5424	0.004384522791951895
0	5430	0.001098418259061873
0	5454	0.004402592312544584
0	5468	0.0025731511414051056
0	5436	-0.0058936201967298985
0	5502	0.01218581572175026
0	5546	0.008140209130942822
0	5588	0.0077833510003983974
0	5654	0.012246564030647278
0	5642	-0.002228384604677558
0	5580	-0.01152145117521286
0	5586	0.0011154765961691737
0	5538	-0.008920163847506046
0	5444	-0.017447039484977722
0	5374	-0.012974816374480724
0	5360	-0.0025910253170877695
0	5386	0.004804612137377262
0	5416	0.005533421877771616
0	5578	0.029829859733581543
0	6748	0.21490760147571564
0	6840	0.016742493957281113
1	5362	-0.26644712686538696
0	3482	-0.33888527750968933
0	5108	0.29640883207321167
0	5670	0.10261716693639755
0	5706	0.0065624769777059555
0	5724	0.0032745928037911654
0	5770	0.008351994678378105
0	5738	-0.005796471145004034
0	5756	0.003253913950175047
0	5742	-0.002525404328480363
0	5760	0.00324075180105865
0	5796	0.006468692794442177
0	5770	-0.004662283230572939
0	5778	0.001431963755749166
0	5766	-0.0021435716189444065
0	5768	0.0003567012317944318
0	5786	0.0032060795929282904
0	5792	0.0010674383956938982
0	5802	0.001777609228156507
0	5788	-0.0024862957652658224
0	5868	0.014189932495355606
0	5828	-0.007083156146109104
0	5842	0.002474868204444647
0	5832	-0.0017636269330978394
0	5804	-0.004924895241856575
0	5738	-0.011578540317714214
0	5618	-0.021008649840950966
0	5472	-0.02553042769432068
0	5300	-0.03009553626179695
0	5172	-0.02258743718266487
0	5090	-0.014613456092774868
0	5072	-0.0032130233012139797
0	5056	-0.0028292543720453978
0	5118	0.010966721922159195
0	5158	0.007098407484591007
0	5182	0.004272895865142345
0	5216	0.0060728020034730434
0	5258	0.007526522036641836
0	5302	0.007907601073384285
0	5350	0.008649999275803566
0	5360	0.0018063365714624524
0	5366	0.001086418516933918
0	5380	0.002541573019698262
0	5400	0.003639407455921173
0	5412	0.002188662765547633
0	5412	0.0
0	5384	-0.0051290192641317844
0	5426	0.007712459657341242
0	5466	0.007361692376434803
0	5442	-0.0044261384755373
0	5462	0.003696311265230179
0	5556	0.017416223883628845
0	5820	0.04899595305323601
0	5604	-0.04009305313229561
0	5468	-0.025279436260461807
0	5582	0.02123432233929634
0	5652	0.013051260262727737
0	5492	-0.029825149103999138
0	5390	-0.01901117153465748
0	5422	0.005960955750197172
0	5428	0.0011159469140693545
0	5398	-0.0055680666118860245
0	5470	0.013336461037397385
0	6014	0.1005074679851532
0	7082	0.19623695313930511
0	6432	-0.11804160475730896
1	4448	-0.35759344696998596
0	3880	-0.10285010188817978
0	5340	0.2665855288505554
0	5668	0.05987659841775894
0	5712	0.00801671389490366
0	5706	-0.0010908562690019608
0	5786	0.014514841139316559
0	5782	-0.000723964418284595
0	5650	-0.023835893720388412
0	5684	0.006130765657871962
0	5732	0.008641071617603302
0	5684	-0.008623064495623112
0	5750	0.01183842308819294
0	5706	-0.007878904230892658
0	5726	0.003575685201212764
0	5742	0.0028560548089444637
0	5722	-0.003566121682524681
0	5780	0.010347779840230942
0	5830	0.008911173790693283
0	5800	-0.005335230380296707
0	5820	0.0035522296093404293
0	5856	0.006387659814208746
0	5810	-0.008144475519657135
0	5830	0.0035323207266628742
0	5838	0.0014095426304265857
0	5750	-0.015467722900211811
0	5590	-0.02806525118649006
0	5480	-0.019281331449747086
0	5264	-0.03798002377152443
0	5170	-0.016706358641386032
0	5298	0.02292044833302498
0	5002	-0.05273597687482834
0	4962	-0.007079312112182379
0	5022	0.01064270082861185
0	5036	0.002492818282917142
0	5056	0.003575514769181609
0	5234	0.03194582462310791
0	5360	0.022688258439302444
0	5338	-0.003971501253545284
0	5388	0.009043117053806782
0	5428	0.007247427012771368
0	5406	-0.003993416670709848
0	5400	-0.0010909488191828132
0	5436	0.006559607572853565
0	5398	-0.006935403682291508
0	5404	0.001097253174521029
0	5440	0.006597112398594618
0	5508	0.012482713907957077
0	5520	0.0022065043449401855
0	5602	0.015106482431292534
0	5616	0.0025822953321039677
0	5588	-0.0051710763946175575
0	5568	-0.0036997301504015923
0	5582	0.002593681216239929
0	5470	-0.020781276747584343
0	5410	-0.011158223263919353
0	5368	-0.007827254012227058
0	5362	-0.0011197233106940985
0	5362	0.0
0	5414	0.009705476462841034
0	6256	0.15691585838794708
0	7166	0.16858512163162231
1	5918	-0.22815357148647308
0	2988	-0.5325465202331543
0	4802	0.3338199555873871
0	5624	0.1514853686094284
0	5684	0.011018878780305386
0	5716	0.0058605908416211605
0	5722	0.0010964778484776616
0	5716	-0.0010939190397039056
0	5722	0.0010917427716776729
0	5734	0.0021795989014208317
0	5718	-0.0029003722593188286
0	5682	-0.006513322237879038
0	5702	0.003613151842728257
0	5702	0.0
0	5698	-0.0007200201507657766
0	5646	-0.009345794096589088
0	5630	-0.0028732535429298878
0	5692	0.011126531288027763
0	5862	0.030491815879940987
0	5952	0.01611901819705963
0	5734	-0.03895918279886246
0	5838	0.01856767013669014
0	5948	0.019609007984399796
0	6002	0.009598976001143456
0	5742	-0.046055737882852554
0	5792	0.00883735716342926
0	5632	-0.028208082541823387
0	5914	0.04963798448443413
0	5204	-0.12460950016975403
0	5246	0.007416912820190191
0	4696	-0.09823650121688843
0	4520	-0.031666066497564316
0	5326	0.1436959207057953
0	5472	0.025948483496904373
0	5166	-0.054434191435575485
0	5208	0.007494378834962845
0	5586	0.0676538348197937
0	5112	-0.08490464836359024
0	4770	-0.06148203834891319
0	5170	0.07232139259576797
0	5044	-0.022858938202261925
0	5468	0.07723695784807205
0	5468	0.0
0	5554	0.015708720311522484
0	5716	0.02961753122508526
0	5466	-0.045701052993535995
0	5470	0.0007320197182707489
0	5572	0.018684741109609604
0	5400	-0.031530704349279404
0	5460	0.011030222289264202
0	5432	-0.005163003224879503
0	5546	0.02105989120900631
0	5510	-0.0066624716855585575
0	5252	-0.047877080738544464
0	5370	0.021999329328536987
0	5416	0.00859588198363781
0	6346	0.17419427633285522
0	7044	0.13015912473201752
1	5812	-0.22813406586647034
0	3218	-0.47854480147361755
0	5016	0.3358864188194275
0	5664	0.12081287801265717
0	5738	0.013699137605726719
0	5754	0.00295446440577507
0	5734	-0.003686681389808655
0	5726	-0.001469543669372797
0	5744	0.0032960192766040564
0	5760	0.002926971996203065
0	5770	0.0018221574136987329
0	5756	-0.002535619307309389
0	5750	-0.0010828630765900016
0	5758	0.0014377111801877618
0	5748	-0.001794022275134921
0	5762	0.0025074328295886517
0	5756	-0.001073281280696392
0	5780	0.004292101599276066
0	5794	0.002499047899618745
0	5838	0.007839038968086243
0	5880	0.007470916956663132
0	5856	-0.004256980028003454
0	5908	0.00920191127806902
0	5846	-0.010940790176391602
0	5822	-0.00422768434509635
0	5730	-0.016176488250494003
0	5576	-0.027002383023500443
0	5386	-0.033274564892053604
0	5200	-0.032579753547906876
0	5068	-0.023276865482330322
0	4992	-0.013559321872889996
0	4970	-0.003944301977753639
0	5034	0.011355436407029629
0	5086	0.009225310757756233
0	5104	0.0032043294049799442
0	5162	0.010364051908254623
0	5228	0.011835310608148575
0	5292	0.011511482298374176
0	5344	0.009377479553222656
0	5324	-0.003615416120737791
0	5408	0.015224745497107506
0	5476	0.012351809069514275
0	5502	0.004730770830065012
0	5516	0.002551175421103835
0	5502	-0.002554930979385972
0	5568	0.01206272654235363
0	5556	-0.0021958183497190475
0	5490	-0.012091751210391521
0	5398	-0.016885071992874146
0	5364	-0.006255289539694786
0	5352	-0.0022141854278743267
0	5382	0.005553498864173889
0	5384	0.00037131927092559636
0	6254	0.16204939782619476
0	7068	0.15123552083969116
1	6024	-0.1924826055765152
0	3104	-0.5373903512954712
0	4746	0.30684325098991394
0	5648	0.16923289000988007
0	5704	0.010477342642843723
0	5714	0.0018635622691363096
0	5726	0.0022262900602072477
0	5706	-0.0036932167131453753
0	5748	0.0077238064259290695
0	5736	-0.0021978828590363264
0	5762	0.004743775352835655
0	5766	0.0007271581562235951
0	5772	0.0010871929116547108
0	5726	-0.00831105001270771
0	5754	0.005047288257628679
0	5762	0.0014383660163730383
0	5760	-0.0003588302352000028
0	5802	0.007522657513618469
0	5818	0.0028606506530195475
0	5834	0.002855511149391532
0	5906	0.012824471108615398
0	5924	0.003199696773663163
0	5908	-0.0028379864525049925
0	5908	0.0
0	5854	-0.009525937028229237
0	5796	-0.010202166624367237
0	5712	-0.014737186953425407
0	5516	-0.03432053327560425
0	5346	-0.029744893312454224
0	5198	-0.026033421978354454
0	5076	-0.021697890013456345
0	5048	-0.005007988773286343
0	5040	-0.0014144604792818427
0	5094	0.009531093761324883
0	5134	0.007083156146109104
0	5176	0.007462420966476202
0	5206	0.005347339436411858
0	5224	0.003218347206711769
0	5266	0.007531110662966967
0	5310	0.007912530563771725
0	5402	0.01658673770725727
0	5480	0.014093158766627312
0	5506	0.004705825354903936
0	5488	-0.003263115882873535
0	5468	-0.003630906343460083
0	5532	0.011639043688774109
0	5528	-0.0007284558960236609
0	5428	-0.018237082287669182
0	5356	-0.01316062081605196
0	5334	-0.004032652359455824
0	5344	0.0018386408919468522
0	5344	0.0
0	5344	0.0
0	5908	0.10479506105184555
0	7044	0.21107657253742218
1	6138	-0.16710934042930603
0	3078	-0.563224732875824
0	4504	0.26678138971328735
0	5606	0.20747564733028412
0	5650	0.00827046949416399
0	5678	0.005248162895441055
0	5672	-0.0011203923495486379
0	5646	-0.00483624916523695
0	5714	0.012601304799318314
0	5716	0.00036921261926181614
0	5756	0.007357900496572256
0	5712	-0.008065009489655495
0	5704	-0.0014618458226323128
0	5720	0.002915168646723032
0	5708	-0.0021803646814078093
0	5706	-0.00036252025165595114
0	5800	0.017007213085889816
0	5786	-0.0025281100533902645
0	5798	0.002163305412977934
0	5828	0.005398207809776068
0	5808	-0.0035910510923713446
0	5828	0.0035851288121193647
0	5820	-0.001431485521607101
0	5794	-0.004641476087272167
0	5740	-0.009614928625524044
0	5618	-0.021670397371053696
0	5442	-0.031211577355861664
0	5298	-0.025521958246827126
0	5176	-0.021628649905323982
0	5064	-0.01994207315146923
0	5032	-0.005765488836914301
0	5030	-0.0003627525584306568
0	5088	0.010397122241556644
0	5134	0.008217318914830685
0	5220	0.015406112186610699
0	5232	0.0021552240941673517
0	5300	0.012245632708072662
0	5368	0.012273038737475872
0	5460	0.01663251779973507
0	5520	0.010863923467695713
0	5534	0.0025379175785928965
0	5488	-0.008350074291229248
0	5536	0.008724945597350597
0	5560	0.004366918001323938
0	5466	-0.017120378091931343
0	5388	-0.01422717235982418
0	5386	-0.000365505984518677
0	5404	0.0032978709787130356
0	5430	0.0047747306525707245
0	5436	0.0011043486883863807
0	5738	0.05571955814957619
0	6702	0.177936390042305
0	6878	0.032312553375959396
1	5014	-0.34001773595809937
0	4064	-0.17411810159683228
0	5438	0.2544350028038025
0	5690	0.0467168428003788
0	5694	0.0007404024945572019
0	5684	-0.0018464947352185845
0	5718	0.0062585133127868176
0	5738	0.0036667645908892155
0	5708	-0.00547651806846261
0	5696	-0.002181606600061059
0	5726	0.005433995276689529
0	5716	-0.0018048804486170411
0	5704	-0.002159412484616041
0	5724	0.0035888603888452053
0	5716	-0.001431912649422884
0	5728	0.002143418649211526
0	5740	0.0021400037221610546
0	5736	-0.0007124029798433185
0	5754	0.0032019733916968107
0	5808	0.009590793401002884
0	5812	0.0007092868909239769
0	5822	0.0017705800710245967
0	5794	-0.004947229288518429
0	5768	-0.004582897759974003
0	5740	-0.00492437556385994
0	5638	-0.017903530970215797
0	5464	-0.030504196882247925
0	5264	-0.03505655750632286
0	5166	-0.017225418239831924
0	5082	-0.014898723922669888
0	5032	-0.008963464759290218
0	5052	0.0035850005224347115
0	5086	0.006058733910322189
0	5116	0.0053571430034935474
0	5200	0.01505142543464899
0	5238	0.006829128134995699
0	5336	0.01765914261341095
0	5370	0.0061407312750816345
0	5446	0.013756818138062954
0	5470	0.004351136740297079
0	5462	-0.0014523625141009688
0	5506	0.00800077524036169
0	5496	-0.0018206755630671978
0	5416	-0.014583814889192581
0	5362	-0.009862533770501614
0	5340	-0.0040267473086714745
0	5352	0.0022016195580363274
0	5372	0.003678093198686838
0	5438	0.012164851650595665
0	5586	0.027331823483109474
0	6458	0.16125652194023132
0	6628	0.03131293132901192
1	4858	-0.32441747188568115
0	4122	-0.1356748640537262
0	5350	0.22868351638317108
0	5620	0.05040259659290314
0	5686	0.01232201512902975
0	5688	0.00037287926534190774
0	5704	0.0029751944821327925
0	5708	0.0007413264829665422
0	5750	0.0077539412304759026
0	5720	-0.005514165386557579
0	5704	-0.0029289009980857372
0	5718	0.002553160535171628
0	5728	0.0018170365365222096
0	5750	0.0039847372099757195
0	5752	0.00036113252281211317
0	5768	0.0028818442951887846
0	5796	0.005031205713748932
0	5788	-0.001434480189345777
0	5806	0.0032214573584496975
0	5854	0.008572959341108799
0	5880	0.004634085576981306
0	5866	-0.0024895970709621906
0	5828	-0.006739500910043716
0	5814	-0.0024761524982750416
0	5718	-0.016932012513279915
0	5600	-0.020767580717802048
0	5418	-0.031988564878702164
0	5228	-0.033398568630218506
0	5106	-0.02149047702550888
0	5034	-0.01278439350426197
0	5062	0.005019060336053371
0	5084	0.003938746638596058
0	5110	0.004628310911357403
0	5168	0.01033941749483347
0	5226	0.010367263108491898
0	5280	0.009678807109594345
0	5362	0.014733362011611462
0	5442	0.014403513632714748
0	5482	0.007213272154331207
0	5496	0.002528719138354063
0	5498	0.00036173342959955335
0	5510	0.002173099434003234
0	5538	0.005076939705759287
0	5454	-0.015248330309987068
0	5370	-0.015275690704584122
0	5346	-0.0043746125884354115
0	5320	-0.0047513460740447044
0	5356	0.00659791799262166
0	5338	-0.0033076885156333447
0	5698	0.06634395569562912
0	6716	0.18778590857982635
0	6466	-0.04588054120540619
1	4784	-0.3075554072856903
0	4198	-0.10783688724040985
0	5496	0.24125199019908905
0	5722	0.04206320643424988
0	5700	-0.004091551527380943
0	5720	0.003713100915774703
0	5706	-0.0025912809651345015
0	5696	-0.0018440884305164218
0	5742	0.008448428474366665
0	5742	0.0
0	5742	0.0
0	5732	-0.0018147282535210252
0	5740	0.001446846523322165
0	5724	-0.0028847542125731707
0	5736	0.002157807582989335
0	5724	-0.002152981236577034
0	5782	0.010388555005192757
0	5790	0.0014303423231467605
0	5806	0.0028556811157613993
0	5810	0.0007126144482754171
0	5856	0.00818049255758524
0	5856	0.0
0	5854	-0.00035416200989857316
0	5824	-0.005297296214848757
0	5726	-0.01725595071911812
0	5518	-0.03653780743479729
0	5322	-0.03439722955226898
0	5152	-0.029837124049663544
0	5032	-0.02112899348139763
0	5024	-0.0014226606581360102
0	5028	0.0007174630300141871
0	5082	0.009671641513705254
0	5116	0.006057582795619965
0	5166	0.008928358554840088
0	5216	0.008958004415035248
0	5264	0.008624613285064697
0	5282	0.0032430875580757856
0	5326	0.007947785779833794
0	5354	0.005068974569439888
0	5460	0.01923472434282303
0	5534	0.013450957834720612
0	5554	0.0036399816162884235
0	5552	-0.0003643916279543191
0	5548	-0.0007296163239516318
0	5554	0.0010955969337373972
0	5554	0.0
0	5448	-0.019397104158997536
0	5358	-0.01650286093354225
0	5334	-0.004412413574755192
0	5340	0.0011063034180551767
0	5352	0.002219017129391432
0	5364	0.0022259321995079517
0	5850	0.09042533487081528
0	6938	0.20243868231773376
0	6292	-0.11937319487333298
1	4250	-0.37602660059928894
0	4606	0.06607029587030411
0	5630	0.19089044630527496
0	5690	0.011151864193379879
0	5702	0.0022213172633200884
0	5678	-0.004424126353114843
0	5696	0.003304894780740142
0	5702	0.0010975075419992208
0	5744	0.007655200082808733
0	5708	-0.00653863837942481
0	5726	0.003259609919041395
0	5724	-0.000361171638360247
0	5738	0.002521492773666978
0	5762	0.004311893600970507
0	5758	-0.0007168972515501082
0	5768	0.0017890582093968987
0	5818	0.008932825177907944
0	5830	0.002140512689948082
0	5870	0.007123268209397793
0	5862	-0.0014219357399269938
0	5866	0.0007096728659234941
0	5848	-0.00318764615803957
0	5794	-0.00954041164368391
0	5656	-0.02431860938668251
0	5434	-0.03904738649725914
0	5236	-0.034806862473487854
0	5116	-0.02110941708087921
0	5090	-0.00458036782220006
0	5072	-0.003185239154845476
0	5096	0.004294251557439566
0	5134	0.006848080549389124
0	5152	0.003226693021133542
0	5204	0.00929124467074871
0	5266	0.011106201447546482
0	5286	0.003591738874092698
0	5302	0.0028805644251406193
0	5352	0.009022122249007225
0	5402	0.009040827862918377
0	5446	0.007970340549945831
0	5444	-0.0003629412967711687
0	5424	-0.0036352179013192654
0	5426	0.0003641881630755961
0	5468	0.007661810144782066
0	5472	0.0007308961939997971
0	5552	0.014643789269030094
0	5596	0.008064220659434795
0	5646	0.009173526428639889
0	5636	-0.0018366372678428888
0	5626	-0.0018388212192803621
0	5676	0.009207877330482006
0	5654	-0.004056097008287907
0	5496	-0.029168153181672096
0	5428	-0.012580633163452148
0	5416	-0.00222513428889215
0	5406	-0.0018570332322269678
0	5444	0.007057949434965849
0	5414	-0.005564899183809757
0	6056	0.11886981129646301
0	7066	0.18589869141578674
0	6466	-0.10910017043352127
1	4290	-0.3924114406108856
0	4602	0.05655178800225258
0	5620	0.18513354659080505
0	5764	0.026121973991394043
0	5710	-0.009766330942511559
0	5740	0.0054119061678647995
0	5758	0.00323861395008862
0	5764	0.0010769156506285071
0	5774	0.0017909806920215487
0	5764	-0.0017874804325401783
0	5772	0.001427263137884438
0	5772	0.0
0	5758	-0.002487444318830967
0	5752	-0.001064219744876027
0	5780	0.0049581509083509445
0	5764	-0.0028294213116168976
0	5776	0.0021199665497988462
0	5804	0.004942805040627718
0	5814	0.0017635440453886986
0	5844	0.005284791812300682
0	5826	-0.0031677500810474157
0	5830	0.000703234865795821
0	5796	-0.0059658195823431015
0	5780	-0.0028014148119837046
0	5736	-0.007687559351325035
0	5598	-0.02406473085284233
0	5422	-0.030663803219795227
0	5258	-0.028571762144565582
0	5106	-0.026604432612657547
0	5046	-0.010623229667544365
0	5036	-0.0017855017213150859
0	5054	0.003199696773663163
0	5062	0.0014182887971401215
0	5104	0.007470651064068079
0	5182	0.013928571715950966
0	5212	0.005374032538384199
0	5250	0.006828637327998877
0	5282	0.005767982918769121
0	5336	0.009761741384863853
0	5334	-0.00036250270204618573
0	5370	0.0065420446917414665
0	5424	0.009837021119892597
0	5370	-0.009857852011919022
0	5400	0.005489545874297619
0	5432	0.005868114065378904
0	5436	0.0007350778905674815
0	5446	0.0018413945799693465
0	5442	-0.000738052767701447
0	5472	0.005547747481614351
0	5502	0.0055594677105546
0	5538	0.006685485132038593
0	5602	0.011906533502042294
0	5604	0.00037260600947774947
0	5614	0.0018652540165930986
0	5694	0.014937450177967548
0	5634	-0.01120601687580347
0	5510	-0.023153910413384438
0	5470	-0.007464915048331022
0	5452	-0.0033547873608767986
0	5430	-0.004091500770300627
0	5464	0.006308211944997311
0	5460	-0.0007401832845062017
0	5882	0.07789427042007446
0	7020	0.20900164544582367
0	6440	-0.10528609156608582
1	4584	-0.3343702256679535
0	4200	-0.06944193691015244
0	5480	0.23294752836227417
0	5686	0.03744501620531082
0	5692	0.0010883234208449721
0	5710	0.0032579186372458935
0	5710	0.0
0	5706	-0.0007212578784674406
0	5720	0.002519314642995596
0	5714	-0.0010776377748697996
0	5690	-0.004303285852074623
0	5720	0.00537095358595252
0	5728	0.0014299162430688739
0	5734	0.0010706129251047969
0	5770	0.006413682363927364
0	5750	-0.0035574953071773052
0	5748	-0.0003553029091563076
0	5746	-0.00035499598016031086
0	5778	0.005675167310982943
0	5810	0.005669670645147562
0	5808	-0.00035411183489486575
0	5778	-0.0053062280640006065
0	5746	-0.005651047918945551
0	5722	-0.0042314110323786736
0	5716	-0.0010561768431216478
0	5680	-0.006326444447040558
0	5530	-0.026326874271035194
0	5364	-0.029123147949576378
0	5198	-0.029211638495326042
0	5134	-0.011383984237909317
0	5044	-0.016133658587932587
0	5034	-0.001787714776583016
0	5054	0.0035577481612563133
0	5094	0.007133515551686287
0	5182	0.015749158337712288
0	5200	0.003231249749660492
0	5228	0.005041774827986956
0	5278	0.009029291570186615
0	5316	0.006879986729472876
0	5382	0.011978656984865665
0	5364	-0.003273481037467718
0	5400	0.006559926085174084
0	5384	-0.002921200590208173
0	5408	0.004390993621200323
0	5414	0.0010999352671205997
0	5430	0.0029395553283393383
0	5526	0.017671963199973106
0	5544	0.003318013157695532
0	5534	-0.0018456312827765942
0	5534	0.0
0	5600	0.012220260687172413
0	5602	0.0003707869618665427
0	5494	-0.020044295117259026
0	5406	-0.016357891261577606
0	5404	-0.00037249960587359965
0	5406	0.00037322251591831446
0	5382	-0.004486316815018654
0	5386	0.0007484096568077803
0	5420	0.006360609084367752
0	6568	0.21446719765663147
0	6674	0.019627448171377182
1	5030	-0.3013785779476166
0	3810	-0.22365623712539673
0	5356	0.28559112548828125
0	5658	0.05569831654429436
0	5672	0.002574507612735033
0	5688	0.0029338060412555933
0	5694	0.0010970927542075515
0	5708	0.002553408732637763
0	5712	0.0007278108969330788
0	5686	-0.004721321165561676
0	5730	0.007974385283887386
0	5748	0.0032557579688727856
0	5726	-0.003970545716583729
0	5750	0.004323233850300312
0	5768	0.0032358968164771795
0	5746	-0.003946990706026554
0	5784	0.006808571517467499
0	5796	0.002146997721865773
0	5830	0.006073670461773872
0	5840	0.0017832305748015642
0	5868	0.0049859327264130116
0	5884	0.0028446130454540253
0	5876	-0.0014190268702805042
0	5838	-0.006721697747707367
0	5806	-0.0056459298357367516
0	5702	-0.018306206911802292
0	5506	-0.03443550318479538
0	5322	-0.03230450674891472
0	5162	-0.028106994926929474
0	5070	-0.01629568450152874
0	5024	-0.008225742727518082
0	5004	-0.0035765378270298243
0	5012	0.0014205049956217408
0	5060	0.008540418930351734
0	5142	0.014641811139881611
0	5168	0.004657216835767031
0	5254	0.015452617779374123
0	5298	0.0079268803820014
0	5328	0.005418031010776758
0	5366	0.006878741085529327
0	5366	0.0
0	5430	0.011633261106908321
0	5430	0.0
0	5452	0.004013866186141968
0	5452	0.0
0	5452	0.0
0	5450	-0.0003669231082312763
0	5500	0.009191852062940598
0	5590	0.016575399786233902
0	5590	0.0
0	5592	0.0003694535989779979
0	5570	-0.004070907831192017
0	5622	0.009640817530453205
0	5606	-0.002971069188788533
0	5484	-0.02268698252737522
0	5396	-0.016397109255194664
0	5388	-0.001493484596721828
0	5378	-0.0018682277295738459
0	5410	0.00597624434158206
0	5398	-0.002237637061625719
0	5770	0.06922561675310135
0	6914	0.2119067907333374
0	6502	-0.07542656362056732
1	4518	-0.3599463105201721
0	4154	-0.06625570356845856
0	5508	0.2479429692029953
0	5672	0.02996929921209812
0	5682	0.0018227552063763142
0	5714	0.005819239653646946
0	5728	0.0025399744044989347
0	5720	-0.0014482435071840882
0	5746	0.00469675799831748
0	5786	0.007212058641016483
0	5752	-0.006117161829024553
0	5796	0.007902109995484352
0	5756	-0.00716897239908576
0	5774	0.0032201893627643585
0	5782	0.0014284354401752353
0	5790	0.0014260419411584735
0	5812	0.003916960209608078
0	5784	-0.004978662822395563
0	5820	0.006393861956894398
0	5832	0.002128137508407235
0	5892	0.01062749419361353
0	5892	0.0
0	5850	-0.007408888079226017
0	5836	-0.002463054144755006
0	5778	-0.010177343152463436
0	5634	-0.025208907201886177
0	5422	-0.03706466406583786
0	5248	-0.03041674569249153
0	5084	-0.028756123036146164
0	5020	-0.01134322676807642
0	4988	-0.005721710156649351
0	4990	0.000356607954017818
0	5014	0.004258137661963701
0	5082	0.012100075371563435
0	5160	0.013928240165114403
0	5216	0.010030928999185562
0	5266	0.00898289680480957
0	5318	0.00936813186854124
0	5364	0.008307247422635555
0	5392	0.005068240221589804
0	5406	0.002540158573538065
0	5442	0.006545534357428551
0	5452	0.0018221131758764386
0	5412	-0.0073019349947571754
0	5478	0.012074790894985199
0	5484	0.0010997471399605274
0	5492	0.0014690759126096964
0	5484	-0.001471959287300706
0	5490	0.0011060044635087252
0	5462	-0.0051718405447900295
0	5584	0.022585900500416756
0	5620	0.006677383091300726
0	5634	0.002601134590804577
0	5590	-0.008185944519937038
0	5640	0.00931642297655344
0	5634	-0.001118929823860526
0	5570	-0.011935251764953136
0	5442	-0.023848561570048332
0	5374	-0.012654302641749382
0	5404	0.005572755355387926
0	5406	0.00037063576746731997
0	5414	0.0014787247637286782
0	5448	0.0062682051211595535
0	6322	0.16070115566253662
0	7118	0.14525547623634338
1	6104	-0.1828586608171463
0	3178	-0.5248556137084961
0	4904	0.3135179579257965
0	5662	0.13803233206272125
0	5702	0.007270876783877611
0	5716	0.0025400358717888594
0	5736	0.0036218322347849607
0	5732	-0.000723083212506026
0	5726	-0.0010827978840097785
0	5730	0.0007205043802969158
0	5716	-0.0025179553776979446
0	5722	0.0010776249691843987
0	5724	0.00035871437285095453
0	5764	0.007164007984101772
0	5732	-0.005721846595406532
0	5758	0.0046415310353040695
0	5782	0.004280058667063713
0	5758	-0.004275940824300051
0	5768	0.0017803310183808208
0	5800	0.005691047292202711
0	5846	0.00817312765866518
0	5850	0.0007098155911080539
0	5860	0.0017716046422719955
0	5826	-0.0060086240991950035
0	5802	-0.004230118356645107
0	5734	-0.011957375332713127
0	5576	-0.027730001136660576
0	5414	-0.02840510569512844
0	5220	-0.034022752195596695
0	5070	-0.026476817205548286
0	5016	-0.009647910483181477
0	5010	-0.001078981440514326
0	5034	0.00426904484629631
0	5080	0.00817603338509798
0	5134	0.009631162509322166
0	5180	0.008232122287154198
0	5244	0.011490125209093094
0	5290	0.008282915689051151
0	5334	0.007943863049149513
0	5380	0.008324586786329746
0	5384	0.00072540866676718
0	5404	0.0036343371029943228
0	5458	0.00983164831995964
0	5438	-0.0036472389474511147
0	5452	0.0025581365916877985
0	5454	0.00036607240326702595
0	5470	0.0029340211767703295
0	5494	0.0044094412587583065
0	5446	-0.008833163417875767
0	5482	0.006637983955442905
0	5470	-0.0022169945295900106
0	5472	0.00037035663262940943
0	5482	0.0018561140168458223
0	5512	0.005581395234912634
0	5610	0.018268132582306862
0	5676	0.012317722663283348
0	5668	-0.0014935961226001382
0	5670	0.00037318537943065166
0	5666	-0.0007451842539012432
0	5652	-0.002600941341370344
0	5574	-0.014438917860388756
0	5464	-0.020292706787586212
0	5438	-0.0047831046395003796
0	5442	0.0007340437150560319
0	5432	-0.0018310546875
0	5430	-0.0003655460604932159
0	5578	0.0270092710852623
0	6610	0.18795304000377655
0	6976	0.06612784415483475
1	5498	-0.26442593336105347
0	3236	-0.4044052064418793
0	5020	0.3230830729007721
0	5664	0.11689961701631546
0	5704	0.007251807022839785
0	5724	0.0036200841423124075
0	5730	0.0010842459741979837
0	5708	-0.003968969918787479
0	5730	0.003963297698646784
0	5726	-0.0007195798098109663
0	5732	0.0010775603586807847
0	5728	-0.0007173000485636294
0	5720	-0.0014323911163955927
0	5754	0.006078664679080248
0	5736	-0.003212908748537302
0	5746	0.001782573526725173
0	5750	0.0007124536787159741
0	5762	0.002136422321200371
0	5778	0.0028469751123338938
0	5778	0.0
0	5810	0.005686529912054539
0	5858	0.008521819487214088
0	5880	0.0038992802146822214
0	5878	-0.00035361095797270536
0	5808	-0.01234437245875597
0	5718	-0.01583726331591606
0	5590	-0.022486384958028793
0	5426	-0.028783712536096573
0	5248	-0.031268663704395294
0	5098	-0.026561835780739784
0	5042	-0.010027575306594372
0	5002	-0.007182102184742689
0	5016	0.002487444318830967
0	5024	0.001421430497430265
0	5072	0.008561033755540848
0	5152	0.01432220172137022
0	5204	0.009341317228972912
0	5218	0.0025229165330529213
0	5256	0.006868131924420595
0	5318	0.011237991973757744
0	5342	0.004360940773040056
0	5374	0.005828354973345995
0	5402	0.0051107946783304214
0	5402	0.0
0	5398	-0.0007331020315177739
0	5412	0.0025711662601679564
0	5424	0.002208372112363577
0	5434	0.0018439977429807186
0	5478	0.00812998041510582
0	5472	-0.0011106859892606735
0	5472	0.0
0	5466	-0.001115117222070694
0	5468	0.0003726106369867921
0	5480	0.002241398673504591
0	5526	0.008613372221589088
0	5548	0.004126702435314655
0	5616	0.01276883389800787
0	5608	-0.0015019712736830115
0	5608	0.0
0	5614	0.0011226704809814692
0	5574	-0.007460459601134062
0	5474	-0.01858966425061226
0	5430	-0.008155598305165768
0	5390	-0.007395264692604542
0	5382	-0.0014757242752239108
0	5374	-0.0014729168033227324
0	5388	0.002574097365140915
0	5968	0.10652105510234833
0	7016	0.19159284234046936
0	6498	-0.09369460493326187
1	4708	-0.3214837610721588
0	4318	-0.0703108087182045
0	5480	0.21082806587219238
0	5662	0.033005692064762115
0	5706	0.007966876961290836
0	5714	0.001445835456252098
0	5724	0.001804012106731534
0	5714	-0.0018007634207606316
0	5724	0.0017977420939132571
0	5730	0.0010770574444904923
0	5712	-0.0032261917367577553
0	5718	0.0010738575365394354
0	5718	0.0
0	5740	0.003925720229744911
0	5734	-0.0010689978953450918
0	5744	0.0017794650048017502
0	5768	0.004265756346285343
0	5802	0.006037718150764704
0	5820	0.003192772390320897
0	5846	0.0046060094609856606
0	5826	-0.0035382367204874754
0	5830	0.0007065972895361483
0	5786	-0.007756310980767012
0	5780	-0.0010554709006100893
0	5706	-0.012987772934138775
0	5588	-0.020671049132943153
0	5444	-0.025194205343723297
0	5284	-0.02798442170023918
0	5158	-0.0221259668469429
0	5090	-0.012072291225194931
0	5012	-0.013963980600237846
0	5010	-0.00035740240127779543
0	5052	0.00747463945299387
0	5102	0.008921030908823013
0	5124	0.003938370384275913
0	5156	0.005748503375798464
0	5250	0.016942838206887245
0	5278	0.005061216652393341
0	5346	0.012323901057243347
0	5368	0.00399627024307847
0	5364	-0.0007281906437128782
0	5376	0.002189195016399026
0	5414	0.006946898531168699
0	5430	0.002930438844487071
0	5430	0.0
0	5436	0.0011030492605641484
0	5448	0.002210270380601287
0	5476	0.005167450290173292
0	5466	-0.0018492264207452536
0	5494	0.005189157091081142
0	5522	0.005200465675443411
0	5562	0.007443245034664869
0	5582	0.0037278193049132824
0	5572	-0.0018662752117961645
0	5638	0.012333374470472336
0	5642	0.0007477939943782985
0	5570	-0.013455764390528202
0	5470	-0.01867390237748623
0	5418	-0.0096992002800107
0	5444	0.004841773305088282
0	5446	0.00037162748049013317
0	5484	0.007041992153972387
0	5584	0.018477456644177437
0	6410	0.15212532877922058
0	7166	0.1381242275238037
1	6216	-0.1714368313550949
0	3252	-0.5314939618110657
0	5054	0.3270338177680969
0	5662	0.11049188673496246
0	5728	0.01197126880288124
0	5714	-0.002533844904974103
0	5712	-0.0003612151194829494
0	5726	0.0025234015192836523
0	5726	0.0
0	5750	0.004310086835175753
0	5756	0.001075461506843567
0	5754	-0.00035780310281552374
0	5738	-0.002857210813090205
0	5762	0.004279142711311579
0	5752	-0.0017798449844121933
0	5760	0.0014216997660696507
0	5742	-0.0031943211797624826
0	5778	0.0063818469643592834
0	5782	0.0007082738447934389
0	5826	0.0077813672833144665
0	5850	0.0042396835051476955
0	5864	0.0024701233487576246
0	5876	0.00211359397508204
0	5814	-0.01089426688849926
0	5852	0.006661680061370134
0	5778	-0.012941889464855194
0	5624	-0.02688109502196312
0	5426	-0.03453327715396881
0	5218	-0.03631073608994484
0	5074	-0.025313785299658775
0	4980	-0.01672935299575329
0	4982	0.00035857289913110435
0	4972	-0.0017745178192853928
0	5010	0.006746440194547176
0	5078	0.012119339779019356
0	5162	0.015028984285891056
0	5212	0.008975371718406677
0	5286	0.013323410414159298
0	5300	0.0025273191276937723
0	5310	0.0018098674481734633
0	5350	0.007258737459778786
0	5396	0.008368099108338356
0	5396	0.0
0	5416	0.003653813386335969
0	5434	0.0032953752670437098
0	5454	0.003668647725135088
0	5438	-0.002940419828519225
0	5450	0.002209429396316409
0	5520	0.012914334423840046
0	5572	0.009608987718820572
0	5570	-0.0003701555833686143
0	5608	0.007045126054435968
0	5584	-0.004456603899598122
0	5642	0.010789627209305763
0	5592	-0.009311334230005741
0	5466	-0.023502493277192116
0	5404	-0.011587196961045265
0	5420	0.002994348295032978
0	5398	-0.004117382690310478
0	5420	0.00411276426166296
0	5422	0.00037308328319340944
0	6020	0.11124615371227264
0	7116	0.20258529484272003
1	5968	-0.20943045616149902
0	3144	-0.5122004151344299
0	4784	0.30097267031669617
0	5598	0.14973144233226776
0	5690	0.01688300631940365
0	5708	0.0032950537279248238
0	5738	0.005478117614984512
0	5710	-0.005099624861031771
0	5712	0.00036346452543511987
0	5748	0.0065298620611429214
0	5726	-0.003981996327638626
0	5734	0.0014452955219894648
0	5766	0.005770756397396326
0	5762	-0.0007199942483566701
0	5790	0.005030181258916855
0	5792	0.00035856859176419675
0	5800	0.0014319467591121793
0	5800	0.0
0	5808	0.0014280444011092186
0	5846	0.0067751482129096985
0	5890	0.00783271249383688
0	5870	-0.00355509202927351
0	5898	0.004968944005668163
0	5896	-0.00035401989589445293
0	5846	-0.008824879303574562
0	5738	-0.019014084711670876
0	5532	-0.036195382475852966
0	5348	-0.0323086641728878
0	5182	-0.02916066348552704
0	5024	-0.02789219841361046
0	4934	-0.01608598232269287
0	4902	-0.0057549127377569675
0	4934	0.005694895517081022
0	4980	0.00817913468927145
0	5034	0.009636891074478626
0	5102	0.012182886712253094
0	5160	0.010429028421640396
0	5234	0.013352259062230587
0	5254	0.0036190799437463284
0	5300	0.008346942253410816
0	5330	0.005458449013531208
0	5382	0.00948408991098404
0	5408	0.004752214532345533
0	5422	0.002564478199928999
0	5438	0.00293692946434021
0	5472	0.0062544457614421844
0	5468	-0.000737263762857765
0	5438	-0.005540780257433653
0	5462	0.004442524630576372
0	5478	0.0029680198058485985
0	5556	0.014502095058560371
0	5600	0.008197637274861336
0	5610	0.0018662287620827556
0	5612	0.000373915652744472
0	5610	-0.0003745785797946155
0	5664	0.010128544643521309
0	5664	0.0
0	5520	-0.026999663561582565
0	5472	-0.00899022351950407
0	5440	-0.005982650443911552
0	5392	-0.00895077083259821
0	5424	0.005950241349637508
0	5414	-0.0018534535774961114
0	5870	0.08426758646965027
0	6908	0.19077375531196594
0	6684	-0.04070161655545235
1	4596	-0.3757964074611664
0	4074	-0.0942680686712265
0	5574	0.2727901041507721
0	5724	0.027226196601986885
0	5714	-0.001810435438528657
0	5726	0.002167499391362071
0	5732	0.0010815098648890853
0	5752	0.00359802832826972
0	5764	0.002154553309082985
0	5762	-0.00035839295014739037
0	5762	0.0
0	5802	0.007142942398786545
0	5786	-0.002850999590009451
0	5796	0.0017784523079171777
0	5786	-0.0017751058330759406
0	5792	0.0010636160150170326
0	5822	0.005312053952366114
0	5786	-0.006366497837007046
0	5846	0.010599957779049873
0	5868	0.003881257027387619
0	5910	0.007400793954730034
0	5938	0.004926743917167187
0	5954	0.002808396937325597
0	5918	-0.006301123648881912
0	5832	-0.015010821633040905
0	5692	-0.024373823776841164
0	5454	-0.04137115925550461
0	5232	-0.038580961525440216
0	5068	-0.028606979176402092
0	4974	-0.01657400093972683
0	4962	-0.0021373103372752666
0	5000	0.006753474473953247
0	5028	0.004949094727635384
0	5074	0.008156896568834782
0	5134	0.01068046409636736
0	5222	0.015718776732683182
0	5290	0.012182886712253094
0	5312	0.00395195372402668
0	5376	0.01152696181088686
0	5394	0.0032495276536792517
0	5416	0.0039804596453905106
0	5444	0.005076632834970951
0	5442	-0.00036340291262604296
0	5452	0.0018208081601187587
0	5474	0.004014159087091684
0	5484	0.0018280866788700223
0	5476	-0.0014652194222435355
0	5482	0.001101240748539567
0	5472	-0.0018388212192803621
0	5486	0.0025802648160606623
0	5508	0.00406423956155777
0	5508	0.0
0	5574	0.012255508452653885
0	5626	0.009678620845079422
0	5652	0.004848093260079622
0	5616	-0.006720263045281172
0	5696	0.01494098361581564
0	5640	-0.010442955419421196
0	5484	-0.02901749685406685
0	5422	-0.011502925306558609
0	5372	-0.009250922128558159
0	5354	-0.0033219321630895138
0	5380	0.004787919577211142
0	5372	-0.0014700297033414245
0	5580	0.03815113753080368
0	6642	0.19426117837429047
0	6672	0.005440498702228069
1	4998	-0.30106469988822937
0	3594	-0.25298210978507996
0	5192	0.2910534739494324
0	5618	0.07768525183200836
0	5674	0.010199621319770813
0	5700	0.0047289347276091576
0	5682	-0.0032687652856111526
0	5708	0.00471498491242528
0	5700	-0.0014487154548987746
0	5722	0.003978779539465904
0	5742	0.003611716441810131
0	5732	-0.0018030361970886588
0	5740	0.0014401786029338837
0	5732	-0.0014379867352545261
0	5762	0.005385223310440779
0	5766	0.0007169400923885405
0	5752	-0.0025064153596758842
0	5768	0.0028623223770409822
0	5804	0.0064357733353972435
0	5818	0.0024999999441206455
0	5858	0.007137673441320658
0	5894	0.00641558738425374
0	5910	0.00284444447606802
0	5876	-0.006027015391737223
0	5848	-0.004948686808347702
0	5738	-0.019384853541851044
0	5564	-0.030598964542150497
0	5364	-0.03513168543577194
0	5118	-0.043266694992780685
0	4990	-0.02271571010351181
0	4972	-0.0032265004701912403
0	4956	-0.0028684460557997227
0	4986	0.005334913730621338
0	5032	0.00819020252674818
0	5082	0.00893346406519413
0	5138	0.010040880180895329
0	5186	0.008635474368929863
0	5240	0.009743892587721348
0	5280	0.0072380718775093555
0	5308	0.005079518537968397
0	5364	0.010184533894062042
0	5390	0.004739394411444664
0	5428	0.006941230967640877
0	5398	-0.005490349140018225
0	5406	0.0014670823002234101
0	5402	-0.0007351409876719117
0	5440	0.006999447476118803
0	5462	0.004060089122503996
0	5466	0.0007395902648568153
0	5456	-0.0018528354121372104
0	5500	0.008170743472874165
0	5512	0.0022333336528390646
0	5484	-0.005223490763455629
0	5598	0.02132355608046055
0	5616	0.0033727234695106745
0	5686	0.013135178945958614
0	5652	-0.006382020190358162
0	5662	0.001876031863503158
0	5682	0.003745084395632148
0	5632	-0.009329866617918015
0	5470	-0.030108539387583733
0	5412	-0.010746445506811142
0	5406	-0.0011085791047662497
0	5400	-0.0011057190131396055
0	5428	0.005148383788764477
0	5450	0.00403659837320447
0	6134	0.12526249885559082
0	7108	0.17734456062316895
1	6232	-0.15771280229091644
0	3104	-0.5599579811096191
0	4666	0.2833474576473236
0	5664	0.18180494010448456
0	5762	0.017822934314608574
0	5776	0.002540988614782691
0	5748	-0.005070381797850132
0	5746	-0.0003614240267779678
0	5762	0.002885413123294711
0	5792	0.005399697460234165
0	5758	-0.006107565015554428
0	5764	0.0010759243741631508
0	5774	0.0017899119993671775
0	5770	-0.0007147963042370975
0	5766	-0.0007136994390748441
0	5762	-0.0007125044357962906
0	5764	0.00035590564948506653
0	5782	0.0032003414817154408
0	5830	0.008529391139745712
0	5852	0.0039051868952810764
0	5894	0.0074469842948019505
0	5908	0.0024792219046503305
0	5926	0.0031823860481381416
0	5882	-0.007758316583931446
0	5854	-0.0049235098995268345
0	5800	-0.009470472112298012
0	5606	-0.03394417464733124
0	5432	-0.030413199216127396
0	5230	-0.035310979932546616
0	5054	-0.030928920954465866
0	4958	-0.01707577332854271
0	4952	-0.0010753588285297155
0	4940	-0.0021272320300340652
0	5000	0.010618967935442924
0	5046	0.008173225447535515
0	5084	0.006780548021197319
0	5154	0.01254210527986288
0	5238	0.015104110352694988
0	5278	0.007214399985969067
0	5284	0.001085318042896688
0	5326	0.007620568387210369
0	5394	0.01237038429826498
0	5398	0.0007293059607036412
0	5400	0.0003654881729744375
0	5408	0.0014652551617473364
0	5434	0.004772510379552841
0	5450	0.002942835446447134
0	5468	0.0033170755486935377
0	5468	0.0
0	5490	0.0040711089968681335
0	5496	0.0011127871694043279
0	5486	-0.0018592198612168431
0	5466	-0.003728190204128623
0	5464	-0.0003738876839634031
0	5482	0.0033737770281732082
0	5550	0.01277507096529007
0	5630	0.015053062699735165
0	5644	0.0026338892057538033
0	5610	-0.006388095673173666
0	5664	0.010121709667146206
0	5650	-0.0026141838170588017
0	5566	-0.015617833472788334
0	5466	-0.018522178754210472
0	5406	-0.011077331379055977
0	5376	-0.005524862091988325
0	5400	0.004410953726619482
0	5406	0.001100607798434794
0	5570	0.03003699891269207
0	6552	0.17949186265468597
0	7062	0.09250078350305557
1	5596	-0.2630665898323059
0	3700	-0.33967941999435425
0	5304	0.29030272364616394
0	5686	0.06917616724967957
0	5696	0.0018077734857797623
0	5718	0.003970211371779442
0	5724	0.001080938265658915
0	5734	0.0017986042657867074
0	5738	0.0007182962144725025
0	5750	0.0021514114923775196
0	5752	0.0003580123302526772
0	5728	-0.004289595410227776
0	5752	0.0042834198102355
0	5768	0.0028507625684142113
0	5798	0.005335546564310789
0	5774	-0.004260455723851919
0	5784	0.0017728401580825448
0	5822	0.006730667315423489
0	5830	0.0014154949458315969
0	5864	0.006008057855069637
0	5830	-0.006000988185405731
0	5910	0.014105034992098808
0	5912	0.000351914408383891
0	5886	-0.004562951158732176
0	5862	-0.0042001609690487385
0	5750	-0.019545339047908783
0	5558	-0.033438216894865036
0	5348	-0.03654080256819725
0	5182	-0.02892187610268593
0	4992	-0.03336884826421738
0	4950	-0.0074667553417384624
0	4928	-0.003926187753677368
0	4932	0.00070867536123842
0	4968	0.006392121315002441
0	5030	0.01105563435703516
0	5098	0.012173726223409176
0	5164	0.01185955386608839
0	5230	0.011899467557668686
0	5238	0.0014467418659478426
0	5290	0.009432250633835793
0	5354	0.011641303077340126
0	5380	0.0047407192178070545
0	5412	0.005847098771482706
0	5444	0.0058592320419847965
0	5470	0.004770058672875166
0	5462	-0.001470660325139761
0	5496	0.006262278649955988
0	5500	0.0007380436873063445
0	5482	-0.003327786922454834
0	5514	0.005928780417889357
0	5534	0.003713514655828476
0	5488	-0.008556759916245937
0	5512	0.004476109053939581
0	5510	-0.0003739389358088374
0	5516	0.001124451868236065
0	5592	0.01427390892058611
0	5638	0.008648025803267956
0	5670	0.0060130031779408455
0	5640	-0.0056258440017700195
0	5692	0.009723625145852566
0	5646	-0.008564300835132599
0	5570	-0.014088857918977737
0	5494	-0.014033187180757523
0	5442	-0.00956855621188879
0	5446	0.0007339090807363391
0	5454	0.00146409310400486
0	5444	-0.0018261504592373967
0	5636	0.03500242903828621
0	6778	0.2076791524887085
0	7010	0.04180029407143593
1	5478	-0.27320390939712524
0	3368	-0.37600240111351013
0	5118	0.31562238931655884
0	5674	0.10045530647039413
0	5712	0.006856152787804604
0	5722	0.0018016287358477712
0	5744	0.00395740382373333
0	5730	-0.002514608670026064
0	5744	0.0025111506693065166
0	5730	-0.002507223282009363
0	5734	0.0007154269842430949
0	5726	-0.0014291498810052872
0	5756	0.005351727362722158
0	5746	-0.0017813246231526136
0	5750	0.0007115327753126621
0	5752	0.0003552734269760549
0	5782	0.0053240577690303326
0	5792	0.0017731753177940845
0	5800	0.001417518244124949
0	5820	0.0035404495429247618
0	5838	0.0031839997973293066
0	5910	0.012721597217023373
0	5906	-0.000705342972651124
0	5876	-0.005277292337268591
0	5864	-0.0021055585239082575
0	5792	-0.012602541595697403
0	5600	-0.03354063257575035
0	5366	-0.040840547531843185
0	5214	-0.02657063864171505
0	5070	-0.025403695181012154
0	4992	-0.01391912717372179
0	4936	-0.010022192262113094
0	4962	0.00461003789678216
0	4990	0.004969238303601742
0	5024	0.006058590020984411
0	5092	0.012166901491582394
0	5138	0.00826159305870533
0	5202	0.011536242440342903
0	5262	0.010849648155272007
0	5314	0.00943042617291212
0	5316	0.00036362314131110907
0	5340	0.004374559503048658
0	5382	0.0076734754256904125
0	5390	0.0014649510849267244
0	5384	-0.0011011059395968914
0	5400	0.0029428715351969004
0	5438	0.007004436105489731
0	5446	0.001477741519920528
0	5452	0.0011106723686680198
0	5478	0.004823270719498396
0	5482	0.0007436142186634243
0	5512	0.0055894372053444386
0	5558	0.008591706864535809
0	5594	0.006738544441759586
0	5616	0.004125257954001427
0	5630	0.0026292395778000355
0	5658	0.005263817496597767
0	5644	-0.002630952512845397
0	5556	-0.016508666798472404
0	5474	-0.015350248664617538
0	5426	-0.00896291621029377
0	5404	-0.004096935968846083
0	5416	0.00222821906208992
0	5442	0.004814279731363058
0	5708	0.04911676049232483
0	6702	0.18277209997177124
0	7020	0.05790099874138832
1	5558	-0.26319262385368347
0	3624	-0.34742099046707153
0	5152	0.2772066593170166
0	5626	0.08607643842697144
0	5692	0.01196287851780653
0	5718	0.004702648147940636
0	5742	0.004332129843533039
0	5734	-0.0014409914147108793
0	5770	0.006470863241702318
0	5736	-0.006097852718085051
0	5742	0.001074178027920425
0	5738	-0.0007148559088818729
0	5738	0.0
0	5746	0.0014250766253098845
0	5716	-0.005335673224180937
0	5710	-0.0010658454848453403
0	5778	0.012068720534443855
0	5790	0.002127458341419697
0	5828	0.006730031222105026
0	5842	0.0024765904527157545
0	5892	0.008835379034280777
0	5894	0.0003528996603563428
0	5884	-0.0017609973438084126
0	5864	-0.0035135389771312475
0	5800	-0.011214559897780418
0	5690	-0.019230544567108154
0	5536	-0.026879843324422836
0	5332	-0.035587601363658905
0	5104	-0.0398615337908268
0	4976	-0.022588767111301422
0	4946	-0.005358674097806215
0	4924	-0.003944065887480974
0	4978	0.009606261737644672
0	5016	0.006766944192349911
0	5034	0.0032170431222766638
0	5104	0.01255995873361826
0	5164	0.010805360041558743
0	5222	0.010481549426913261
0	5268	0.008338670246303082
0	5280	0.0021819239482283592
0	5342	0.011304517276585102
0	5392	0.009138762950897217
0	5394	0.00036632275441661477
0	5400	0.001101281144656241
0	5396	-0.0007357449503615499
0	5442	0.00847769994288683
0	5422	-0.003692034864798188
0	5444	0.004070154391229153
0	5486	0.007786910980939865
0	5542	0.010404538363218307
0	5570	0.005211952608078718
0	5620	0.009325690567493439
0	5606	-0.0026156490202993155
0	5642	0.006737619638442993
0	5646	0.0007496626349166036
0	5570	-0.014257306233048439
0	5446	-0.02327938936650753
0	5436	-0.001878428040072322
0	5400	-0.006757940165698528
0	5420	0.0037474706768989563
0	5424	0.0007474214071407914
0	5524	0.018630068749189377
0	6488	0.17892718315124512
0	7166	0.12467818707227707
1	6046	-0.20327909290790558
0	3160	-0.5206190943717957
0	4898	0.3172343373298645
0	5648	0.13711820542812347
0	5728	0.014588070102036
0	5718	-0.0018184243235737085
0	5702	-0.0029017748311161995
0	5728	0.004705144092440605
0	5764	0.006501637399196625
0	5776	0.002162395976483822
0	5754	-0.003955459222197533
0	5752	-0.00035881734220311046
0	5772	0.0035815334413200617
0	5728	-0.007862946018576622
0	5762	0.006065651774406433
0	5772	0.0017810920253396034
0	5788	0.00284586101770401
0	5798	0.0017763671930879354
0	5844	0.008162685669958591
0	5874	0.005316006951034069
0	5906	0.005662647541612387
0	5966	0.010601205751299858
0	5930	-0.006345923524349928
0	5942	0.002109308959916234
0	5864	-0.013669981621205807
0	5748	-0.020274758338928223
0	5574	-0.030354131013154984
0	5328	-0.042877063155174255
0	5096	-0.040483005344867706
0	4984	-0.01970304735004902
0	4908	-0.013543213717639446
0	4932	0.004305910784751177
0	4970	0.0067462008446455
0	5014	0.007808063179254532
0	5082	0.012112431228160858
0	5176	0.016808126121759415
0	5196	0.003587787039577961
0	5254	0.010436159558594227
0	5302	0.008661446161568165
0	5330	0.005066589452326298
0	5356	0.004717380739748478
0	5382	0.004728762898594141
0	5406	0.004374825395643711
0	5402	-0.0007307626656256616
0	5416	0.0025627571158111095
0	5416	0.0
0	5476	0.011030493304133415
0	5464	-0.0022103246301412582
0	5582	0.02177952416241169
0	5576	-0.001109221251681447
0	5622	0.008519675582647324
0	5648	0.0048239268362522125
0	5638	-0.0018590124091133475
0	5632	-0.0011174293467774987
0	5558	-0.013808202929794788
0	5494	-0.011965002864599228
0	5434	-0.01123497262597084
0	5440	0.0011244799243286252
0	5410	-0.0056184688583016396
0	5426	0.0029906542040407658
0	5412	-0.002609635703265667
0	6174	0.14159533381462097
0	7122	0.1748131513595581
0	6348	-0.14086386561393738
1	4384	-0.35456809401512146
0	4216	-0.03045758791267872
0	5564	0.24581195414066315
0	5710	0.026564130559563637
0	5740	0.0054433285258710384
0	5750	0.0018096491694450378
0	5714	-0.006498273462057114
0	5704	-0.0018011960200965405
0	5748	0.007909970358014107
0	5716	-0.0057409401051700115
0	5752	0.006446452345699072
0	5768	0.0028593556489795446
0	5764	-0.0007133430917747319
0	5760	-0.0007121239323168993
0	5754	-0.0010663127759471536
0	5770	0.0028406064957380295
0	5756	-0.0024826801382005215
0	5796	0.0070877582766115665
0	5822	0.00460301898419857
0	5822	0.0
0	5842	0.0035329863894730806
0	5874	0.0056433407589793205
0	5840	-0.0059826853685081005
0	5812	-0.004915212281048298
0	5766	-0.008057452738285065
0	5592	-0.030414972454309464
0	5382	-0.036672256886959076
0	5208	-0.030390890315175056
0	5078	-0.022834258154034615
0	5022	-0.009955436922609806
0	5002	-0.0035836726892739534
0	5018	0.0028563947416841984
0	5084	0.011726661585271358
0	5108	0.0042763976380229
0	5160	0.0092987772077322
0	5206	0.008254379034042358
0	5256	0.009001440368592739
0	5296	0.007220998872071505
0	5332	0.0065148938447237015
0	5366	0.006168434862047434
0	5396	0.0054542808793485165
0	5400	0.0007288098568096757
0	5406	0.001095663639716804
0	5438	0.005856300704181194
0	5436	-0.0003667392011266202
0	5466	0.005511801224201918
0	5436	-0.005522082094103098
0	5430	-0.00110658910125494
0	5456	0.004806033335626125
0	5540	0.01556228008121252
0	5566	0.004825299605727196
0	5668	0.018962396308779716
0	5662	-0.0011168608907610178
0	5630	-0.005963177420198917
0	5636	0.0011193611426278949
0	5600	-0.006721601355820894
0	5486	-0.021284010261297226
0	5424	-0.011568027548491955
0	5432	0.0014906462747603655
0	5402	-0.005577659700065851
0	5390	-0.0022258220706135035
0	5496	0.01961437240242958
0	6360	0.1594056785106659
0	7008	0.11862338334321976
1	5760	-0.2258414775133133
0	3262	-0.4504147171974182
0	5058	0.32766544818878174
0	5654	0.10886640101671219
0	5686	0.0058324625715613365
0	5710	0.004364958964288235
0	5714	0.0007259792182594538
0	5730	0.0028983408119529486
0	5744	0.002531004836782813
0	5722	-0.003969208803027868
0	5714	-0.0014408875722438097
0	5742	0.005034703761339188
0	5758	0.0028722218703478575
0	5740	-0.003225035732612014
0	5780	0.00715350266546011
0	5748	-0.005711769685149193
0	5804	0.009983242489397526
0	5826	0.003916448913514614
0	5828	0.0003557073068805039
0	5876	0.008528582751750946
0	5938	0.011000058613717556
0	5934	-0.0007084159879013896
0	5944	0.0017675547860562801
0	5972	0.004935834556818008
0	5894	-0.013705690391361713
0	5708	-0.032594598829746246
0	5526	-0.03183673694729805
0	5302	-0.03915262222290039
0	5152	-0.026247942820191383
0	4964	-0.033130865544080734
0	4918	-0.008205005899071693
0	4886	-0.0057365489192306995
0	4978	0.016334068030118942
0	5012	0.006039362400770187
0	5076	0.011411589570343494
0	5152	0.013600572943687439
0	5182	0.005386576522141695
0	5220	0.006844791583716869
0	5274	0.009756685234606266
0	5330	0.01014676596969366
0	5334	0.0007264890009537339
0	5368	0.006189395673573017
0	5424	0.010217486880719662
0	5430	0.0010969589930027723
0	5428	-0.0003663450770545751
0	5428	0.0
0	5450	0.004046398680657148
0	5452	0.0003686545242089778
0	5512	0.011085109785199165
0	5558	0.00851515494287014
0	5604	0.008531895466148853
0	5632	0.0052040740847587585
0	5682	0.009310408495366573
0	5660	-0.004103252664208412
0	5618	-0.007848706096410751
0	5634	0.0029951329343020916
0	5506	-0.023972133174538612
0	5444	-0.011612951755523682
0	5432	-0.002245676936581731
0	5418	-0.0026153884828090668
0	5432	0.002608015201985836
0	5444	0.002228329423815012
0	5562	0.02183648571372032
0	6646	0.19987952709197998
0	6566	-0.014604580588638783
1	5042	-0.2757173478603363
0	3912	-0.20457178354263306
0	5420	0.27511221170425415
0	5718	0.05429963022470474
0	5734	0.0029075753409415483
0	5740	0.0010876789456233382
0	5730	-0.0018083618488162756
0	5700	-0.005413273349404335
0	5726	0.004683728329837322
0	5752	0.004675418138504028
0	5736	-0.002871603472158313
0	5744	0.0014331608545035124
0	5752	0.001430649310350418
0	5762	0.0017851191805675626
0	5776	0.0024954546242952347
0	5780	0.0007120647351257503
0	5814	0.00604623556137085
0	5818	0.0007105552940629423
0	5830	0.0021299507934600115
0	5850	0.003546350635588169
0	5932	0.014520127326250076
0	5940	0.001414110534824431
0	5936	-0.0007052517612464726
0	5924	-0.0021096551790833473
0	5884	-0.007011967245489359
0	5724	-0.027971701696515083
0	5468	-0.0446786992251873
0	5270	-0.03455135598778725
0	5028	-0.04230128228664398
0	4956	-0.012705285102128983
0	4926	-0.00534448167309165
0	4940	0.0024958106223493814
0	4986	0.008150729350745678
0	5036	0.008882256224751472
0	5108	0.012842312455177307
0	5096	-0.002148381434381008
0	5222	0.02264503575861454
0	5260	0.0068503026850521564
0	5306	0.008314454928040504
0	5326	0.003624151460826397
0	5372	0.008357051759958267
0	5412	0.007283055689185858
0	5402	-0.0018244402017444372
0	5398	-0.0007313326932489872
0	5420	0.004031272605061531
0	5426	0.0011018338846042752
0	5436	0.001840377924963832
0	5460	0.004427172709256411
0	5512	0.009613369591534138
0	5576	0.01185507234185934
0	5604	0.005195383448153734
0	5642	0.0070652104914188385
0	5594	-0.008940990082919598
0	5620	0.004853342194110155
0	5624	0.0007480830536223948
0	5498	-0.023602871224284172
0	5400	-0.018383732065558434
0	5372	-0.005254729185253382
0	5370	-0.0003750984906218946
0	5394	0.004491578321903944
0	5414	0.0037327827885746956
0	5552	0.02567823976278305
0	6484	0.1727653592824936
0	6938	0.08338639885187149
1	5502	-0.2607148587703705
0	3360	-0.3879684805870056
0	4926	0.28664517402648926
0	5592	0.12212713807821274
0	5676	0.015372227877378464
0	5692	0.002921449486166239
0	5708	0.0029149563051760197
0	5706	-0.0003636275650933385
0	5730	0.004355769604444504
0	5734	0.0007245239103212953
0	5724	-0.0018076426349580288
0	5746	0.003969542682170868
0	5746	0.0
0	5710	-0.006471095606684685
0	5732	0.003948643803596497
0	5754	0.003943453077226877
0	5758	0.0007162297843024135
0	5814	0.010018008761107922
0	5804	-0.001787097193300724
0	5872	0.012137077748775482
0	5898	0.004633700009435415
0	5922	0.004270310513675213
0	5938	0.002839732449501753
0	5910	-0.004953764844685793
0	5900	-0.0017636062111705542
0	5792	-0.018987786024808884
0	5670	-0.021399253979325294
0	5436	-0.04098312929272652
0	5248	-0.03294892981648445
0	5096	-0.026833314448595047
0	4996	-0.01784694381058216
0	4998	0.0003580165794119239
0	4976	-0.0039000639226287603
0	5028	0.009215610101819038
0	5070	0.007468260359019041
0	5152	0.014633449725806713
0	5186	0.006087081041187048
0	5248	0.011134657077491283
0	5288	0.007203400135040283
0	5342	0.009750460274517536
0	5332	-0.0018099111039191484
0	5370	0.006893965881317854
0	5392	0.0040003396570682526
0	5412	0.0036444920115172863
0	5414	0.00036511008511297405
0	5442	0.005121451336890459
0	5458	0.0029321215115487576
0	5532	0.013585959561169147
0	5554	0.004046051297336817
0	5608	0.009946460835635662
0	5636	0.005165797658264637
0	5640	0.000739162031095475
0	5622	-0.0033320169895887375
0	5634	0.002225684467703104
0	5532	-0.018950654193758965
0	5430	-0.018993942067027092
0	5378	-0.009704993106424809
0	5368	-0.0018697412451729178
0	5384	0.002992854453623295
0	5414	0.005606847815215588
0	5524	0.02051779441535473
0	6834	0.24354875087738037
0	6756	-0.0143382353708148
1	5096	-0.3018547594547272
0	3592	-0.273375004529953
0	5170	0.2894173562526703
0	5664	0.09059344232082367
0	5718	0.009874074719846249
0	5696	-0.004011280369013548
0	5722	0.004728877916932106
0	5722	0.0
0	5732	0.001810348010621965
0	5738	0.0010838410817086697
0	5744	0.0010815877467393875
0	5742	-0.0003598114417400211
0	5754	0.002154630608856678
0	5746	-0.0014337431639432907
0	5768	0.00393602205440402
0	5738	-0.005359759088605642
0	5774	0.006424671038985252
0	5808	0.00606175884604454
0	5852	0.007836618460714817
0	5898	0.008182529360055923
0	5948	0.008879522792994976
0	5948	0.0
0	5938	-0.0017682632897049189
0	5890	-0.008462324738502502
0	5834	-0.009843096137046814
0	5576	-0.045225076377391815
0	5378	-0.03466872125864029
0	5200	-0.031173380091786385
0	5020	-0.031583379954099655
0	4958	-0.010995376855134964
0	4926	-0.005736000835895538
0	4952	0.0046652392484247684
0	4986	0.0060514728538692
0	5026	0.007127160206437111
0	5096	0.01251997146755457
0	5166	0.012566572986543179
0	5238	0.012966742739081383
0	5292	0.009753395803272724
0	5324	0.005794791504740715
0	5318	-0.0010892059653997421
0	5340	0.00400393083691597
0	5380	0.007297760806977749
0	5372	-0.0014627723721787333
0	5408	0.006597836967557669
0	5516	0.01983446627855301
0	5552	0.006621704902499914
0	5610	0.010680481791496277
0	5606	-0.0007373272092081606
0	5610	0.0007382434559985995
0	5604	-0.0011090162442997098
0	5498	-0.01962817646563053
0	5392	-0.01968284696340561
0	5354	-0.0070804813876748085
0	5368	0.0026180949062108994
0	5346	-0.004127579741179943
0	5388	0.007904047146439552
0	5694	0.057654622942209244
0	6680	0.18540804088115692
0	6530	-0.027946837246418
1	4772	-0.324493944644928
0	3770	-0.18516236543655396
0	5376	0.2989056408405304
0	5718	0.06348538398742676
0	5720	0.00036958555574528873
0	5696	-0.0044161481782794
0	5750	0.00989990122616291
0	5760	0.001826795400120318
0	5766	0.0010926042450591922
0	5774	0.0014526261948049068
0	5818	0.007967743091285229
0	5804	-0.0025275626685470343
0	5796	-0.0014402995584532619
0	5804	0.001436712802387774
0	5834	0.005373775959014893
0	5830	-0.0007146855932660401
0	5852	0.003923433367162943
0	5858	0.0010681224521249533
0	5886	0.00497724674642086
0	5958	0.012777436524629593
0	5966	0.0014167985646054149
0	6000	0.006008553318679333
0	5984	-0.0028192175086587667
0	5946	-0.006672441493719816
0	5834	-0.019598236307501793
0	5638	-0.034203942865133286
0	5422	-0.037630222737789154
0	5190	-0.040409669280052185
0	5056	-0.023408567532896996
0	4952	-0.018341289833188057
0	4954	0.00035601970739662647
0	5010	0.009957797825336456
0	5050	0.00706081697717309
0	5116	0.011672738008201122
0	5154	0.006744604557752609
0	5232	0.013890703208744526
0	5266	0.006071645766496658
0	5302	0.006447376683354378
0	5326	0.0043100351467728615
0	5356	0.005401771515607834
0	5392	0.006498429924249649
0	5390	-0.00036195165012031794
0	5382	-0.0014514315407723188
0	5490	0.019643506035208702
0	5540	0.009111561812460423
0	5532	-0.0014604580355808139
0	5522	-0.0018288892460986972
0	5564	0.0076968190260231495
0	5542	-0.004038920626044273
0	5458	-0.015453865751624107
0	5376	-0.015132315456867218
0	5338	-0.007038079667836428
0	5314	-0.0044633448123931885
0	5356	0.007843430154025555
0	5368	0.0022492408752441406
0	5672	0.057147152721881866
0	6716	0.19621355831623077
0	6600	-0.021626189351081848
1	4754	-0.34116530418395996
0	3984	-0.14257147908210754
0	5438	0.2708374857902527
0	5720	0.05237093195319176
0	5734	0.0025885978247970343
0	5740	0.0011047418229281902
0	5728	-0.0022010542452335358
0	5754	0.0047522722743451595
0	5762	0.0014576020184904337
0	5786	0.0043596732430160046
0	5782	-0.0007244889275170863
0	5786	0.0007224998553283513
0	5760	-0.004684122279286385
0	5762	0.00035952255711890757
0	5770	0.0014348917175084352
0	5806	0.006442069076001644
0	5786	-0.0035721941385418177
0	5832	0.008204030804336071
0	5868	0.00640911515802145
0	5900	0.005685317795723677
0	5938	0.006737906951457262
0	5922	-0.002830388955771923
0	5922	0.0
0	5876	-0.00808919221162796
0	5748	-0.02243829518556595
0	5506	-0.04231508821249008
0	5254	-0.044025156646966934
0	5080	-0.0304185152053833
0	4972	-0.018945816904306412
0	4938	-0.006025875452905893
0	4982	0.007875519804656506
0	5000	0.0032174265943467617
0	5078	0.013858290389180183
0	5164	0.015312300063669682
0	5228	0.01143292710185051
0	5276	0.008600609377026558
0	5306	0.005390319041907787
0	5328	0.003962916787713766
0	5380	0.00939091481268406
0	5410	0.005430323071777821
0	5398	-0.0021770682651549578
0	5362	-0.006546406541019678
0	5464	0.018595945090055466
0	5550	0.015707187354564667
0	5564	0.0025602886453270912
0	5558	-0.00109864620026201
0	5572	0.00256739417091012
0	5572	0.0
0	5488	-0.015449128113687038
0	5400	-0.016222594305872917
0	5334	-0.012204443104565144
0	5354	0.0037121360655874014
0	5344	-0.0018626137170940638
0	5378	0.0063556949608027935
0	5644	0.049878742545843124
0	6732	0.20414800941944122
0	6862	0.024207063019275665
1	5188	-0.30863213539123535
0	3736	-0.2675248384475708
0	5266	0.2840522229671478
0	5678	0.07633493840694427
0	5664	-0.0025828033685684204
0	5684	0.0036747141275554895
0	5692	0.0014644504990428686
0	5710	0.0032844317611306906
0	5712	0.0003638701164163649
0	5740	0.005080747418105602
0	5778	0.006877246778458357
0	5790	0.002165882382541895
0	5796	0.0010802765609696507
0	5802	0.0010777798015624285
0	5806	0.0007167859002947807
0	5814	0.0014297799207270145
0	5832	0.0032103112898766994
0	5878	0.008190397173166275
0	5922	0.007819720543920994
0	5924	0.0003546770312823355
0	5954	0.005309108179062605
0	5982	0.004944026470184326
0	5954	-0.004929692950099707
0	5916	-0.0066686165519058704
0	5826	-0.01574050262570381
0	5644	-0.03174344822764397
0	5438	-0.035866837948560715
0	5244	-0.033765751868486404
0	5100	-0.02512153796851635
0	4972	-0.02254420705139637
0	4948	-0.004274468403309584
0	4988	0.007134278770536184
0	5028	0.0070815677754580975
0	5056	0.004964069928973913
0	5114	0.010320652276277542
0	5190	0.013567875139415264
0	5260	0.012533572502434254
0	5308	0.008616666309535503
0	5340	0.005758295301347971
0	5360	0.0036069832276552916
0	5352	-0.0014460968086495996
0	5358	0.0010873636929318309
0	5408	0.009085073135793209
0	5474	0.012020544148981571
0	5550	0.013869456946849823
0	5550	0.0
0	5598	0.008787453174591064
0	5562	-0.006600014865398407
0	5594	0.00587803078815341
0	5570	-0.004417394753545523
0	5454	-0.021397214382886887
0	5374	-0.014802205376327038
0	5350	-0.004457376431673765
0	5368	0.003355579450726509
0	5374	0.0011223484762012959
0	5388	0.0026262146420776844
0	5732	0.06463330239057541
0	6766	0.1939186304807663
0	6796	0.0055732387118041515
1	4510	-0.4202669560909271
0	4160	-0.06452802568674088
0	5570	0.2612207531929016
0	5730	0.029535917565226555
0	5724	-0.0011028330773115158
0	5754	0.005491689313203096
0	5752	-0.0003646884288173169
0	5756	0.0007268938352353871
0	5760	0.000724716461263597
0	5774	0.002529602264985442
0	5772	-0.0003604296362027526
0	5798	0.004674017429351807
0	5780	-0.003227233188226819
0	5796	0.0028614350594580173
0	5798	0.0003568539978004992
0	5820	0.003917844034731388
0	5804	-0.0028447816148400307
0	5834	0.005325948353856802
0	5854	0.0035456803161650896
0	5904	0.008848931640386581
0	5918	0.0024731778539717197
0	5922	0.0007051771390251815
0	5912	-0.001758107915520668
0	5892	-0.0035051642917096615
0	5754	-0.02410929650068283
0	5566	-0.03277088329195976
0	5360	-0.03586850315332413
0	5156	-0.03552604094147682
0	5016	-0.02446240931749344
0	4968	-0.008473479188978672
0	4982	0.0024983047042042017
0	4998	0.002847211668267846
0	5074	0.013457360677421093
0	5130	0.009945065714418888
0	5194	0.011406302452087402
0	5270	0.013587766326963902
0	5260	-0.0017930358881130815
0	5316	0.010070614516735077
0	5334	0.003245543222874403
0	5344	0.0018077080603688955
0	5368	0.004349770024418831
0	5400	0.005813882686197758
0	5510	0.02003351040184498
0	5534	0.004378124140202999
0	5542	0.0014617033302783966
0	5522	-0.003659965004771948
0	5548	0.004766618832945824
0	5552	0.0007344749756157398
0	5544	-0.0014714899007230997
0	5420	-0.022851526737213135
0	5322	-0.018113931640982628
0	5332	0.0018551727989688516
0	5328	-0.0007447865209542215
0	5356	0.005232471041381359
0	5378	0.004124999977648258
0	6370	0.18643814325332642
0	7102	0.13688383996486664
1	5696	-0.2600974440574646
0	3132	-0.4727429449558258
0	4884	0.32681283354759216
0	5642	0.14146892726421356
0	5726	0.015613188967108727
0	5704	-0.004070807248353958
0	5724	0.0036864092107862234
0	5728	0.0007346009369939566
0	5746	0.0032949333544820547
0	5756	0.001825217274017632
0	5746	-0.0018197257304564118
0	5744	-0.00036299836938269436
0	5770	0.0047073024325072765
0	5796	0.004695231560617685
0	5816	0.0036024353466928005
0	5810	-0.0010780380107462406
0	5828	0.003228313522413373
0	5844	0.0028645771089941263
0	5878	0.006076275371015072
0	5936	0.010343475267291069
0	5952	0.002846806077286601
0	5946	-0.0010650258045643568
0	5918	-0.0049583264626562595
0	5880	-0.006709434557706118
0	5826	-0.009503250010311604
0	5674	-0.026672594249248505
0	5464	-0.0367758646607399
0	5174	-0.050753720104694366
0	5014	-0.028035417199134827
0	4972	-0.0074180481024086475
0	4940	-0.005723620764911175
0	4988	0.008624304085969925
0	5018	0.005330932792276144
0	5080	0.011008522473275661
0	5196	0.020665328949689865
0	5280	0.015011794865131378
0	5310	0.005374931264668703
0	5338	0.0050290366634726524
0	5336	-0.0003600576310418546
0	5424	0.015881609171628952
0	5548	0.02242341823875904
0	5562	0.002534701256081462
0	5580	0.003262485144659877
0	5542	-0.006895383819937706
0	5584	0.007632940076291561
0	5574	-0.0018199245678260922
0	5438	-0.024786459282040596
0	5386	-0.009499683044850826
0	5348	-0.0069614918902516365
0	5342	-0.0011027520522475243
0	5346	0.0007378531154245138
0	5336	-0.0018515319097787142
0	5574	0.04423298314213753
0	6462	0.16538982093334198
0	6774	0.05790073052048683
1	5004	-0.32656022906303406
0	3908	-0.20304569602012634
0	5406	0.28021299839019775
0	5716	0.05790424346923828
0	5708	-0.001487799920141697
0	5700	-0.0014810425927862525
0	5714	0.0025797258131206036
0	5698	-0.0029351694975048304
0	5752	0.009865175932645798
0	5750	-0.0003638877533376217
0	5760	0.0018133462872356176
0	5768	0.0014464802807196975
0	5802	0.006130618508905172
0	5830	0.005034703761339188
0	5832	0.0003585600352380425
0	5830	-0.000357687909854576
0	5846	0.0028567006811499596
0	5862	0.0028518803883343935
0	5916	0.009608997032046318
0	5966	0.008877525106072426
0	5980	0.002480100141838193
0	5928	-0.009189768694341183
0	5916	-0.002114612143486738
0	5856	-0.010540246032178402
0	5706	-0.02627246268093586
0	5474	-0.040548570454120636
0	5208	-0.04645639285445213
0	5088	-0.02097339928150177
0	5000	-0.01542416401207447
0	4948	-0.00919280108064413
0	4988	0.007148303557187319
0	5020	0.005719187669456005
0	5036	0.0028407745994627476
0	5096	0.01067628338932991
0	5174	0.013930396176874638
0	5240	0.01182484906166792
0	5278	0.0068270014598965645
0	5324	0.00828589964658022
0	5346	0.0039717406034469604
0	5372	0.004705371335148811
0	5492	0.02176673337817192
0	5556	0.011627765372395515
0	5544	-0.0021830089390277863
0	5504	-0.007288098800927401
0	5514	0.0018256392795592546
0	5540	0.004755865782499313
0	5544	0.0007329676882363856
0	5440	-0.0190923772752285
0	5360	-0.014724468812346458
0	5352	-0.0014774868031963706
0	5358	0.001112319529056549
0	5382	0.004466446116566658
0	5366	-0.002987750107422471
0	5732	0.06857956200838089
0	6814	0.2028978168964386
0	6718	-0.017878204584121704
1	4920	-0.33227789402008057
0	4126	-0.14699530601501465
0	5512	0.2581261992454529
0	5734	0.04121389240026474
0	5750	0.002955992706120014
0	5754	0.0007355465204454958
0	5786	0.005858016200363636
0	5760	-0.0047379545867443085
0	5762	0.0003629939747042954
0	5778	0.0028936578892171383
0	5770	-0.0014421517262235284
0	5758	-0.002156851114705205
0	5746	-0.0021512573584914207
0	5776	0.005365318618714809
0	5818	0.007493399083614349
0	5818	0.0
0	5842	0.004267020616680384
0	5886	0.007809079717844725
0	5936	0.008853944949805737
0	5954	0.0031795005779713392
0	5962	0.001409674994647503
0	5960	-0.00035155564546585083
0	5962	0.0003504877386149019
0	5884	-0.013621123507618904
0	5748	-0.023676330223679543
0	5512	-0.040992625057697296
0	5346	-0.02881210669875145
0	5118	-0.03957783803343773
0	5010	-0.018814237788319588
0	4946	-0.011267208494246006
0	4944	-0.0003558001480996609
0	5028	0.01494148001074791
0	5068	0.007077140733599663
0	5170	0.01809408888220787
0	5210	0.007119464688003063
0	5256	0.008213698863983154
0	5300	0.007879938930273056
0	5362	0.011135857552289963
0	5366	0.0007201583939604461
0	5382	0.0028874960262328386
0	5404	0.0039797876961529255
0	5456	0.009427576325833797
0	5518	0.011261125095188618
0	5576	0.01054916251450777
0	5598	0.004006264265626669
0	5584	-0.0025528499390929937
0	5578	-0.0010956369806081057
0	5636	0.010608203709125519
0	5616	-0.003663585288450122
0	5516	-0.018353786319494247
0	5406	-0.020243411883711815
0	5380	-0.004801181610673666
0	5370	-0.0018532245885580778
0	5382	0.0022320321295410395
0	5374	-0.001492667361162603
0	5506	0.024686431512236595
0	6488	0.18365895748138428
0	7040	0.10250823944807053
1	5604	-0.2635346055030823
0	3104	-0.45713868737220764
0	4946	0.34064429998397827
0	5640	0.12834104895591736
0	5706	0.01215947326272726
0	5704	-0.0003670308506116271
0	5698	-0.0010975075419992208
0	5724	0.004741756245493889
0	5750	0.00472830468788743
0	5730	-0.0036272625438869
0	5766	0.0065145790576934814
0	5752	-0.002527349628508091
0	5792	0.007204956840723753
0	5766	-0.0046723373234272
0	5770	0.0007174888160079718
0	5790	0.0035820468328893185
0	5810	0.003577476367354393
0	5826	0.0028583677485585213
0	5858	0.005708509590476751
0	5890	0.005699020344763994
0	5944	0.009602617472410202
0	5950	0.001064887153916061
0	5940	-0.0017702665645629168
0	5862	-0.013764706440269947
0	5806	-0.009854412637650967
0	5574	-0.04072128236293793
0	5368	-0.03611711785197258
0	5156	-0.037170376628637314
0	5014	-0.02494817227125168
0	4938	-0.013468809425830841
0	4936	-0.0003588988911360502
0	4980	0.00792745128273964
0	5010	0.005344862584024668
0	5066	0.009973285719752312
0	5182	0.020729586482048035
0	5224	0.007529040798544884
0	5278	0.009708039462566376
0	5262	-0.0028837143909186125
0	5310	0.008675221353769302
0	5318	0.0014497130177915096
0	5386	0.012353303842246532
0	5388	0.00036417049705050886
0	5398	0.0018248842097818851
0	5458	0.010975610464811325
0	5496	0.0069642988964915276
0	5546	0.009178915992379189
0	5532	-0.0025739395059645176
0	5530	-0.00036833315971307456
0	5578	0.008856088854372501
0	5566	-0.0022178413346409798
0	5462	-0.019259734079241753
0	5376	-0.01597384735941887
0	5364	-0.0022368584759533405
0	5366	0.0003741488035302609
0	5398	0.006004954222589731
0	5392	-0.0011288096429780126
0	5524	0.024862190708518028
0	6326	0.15090884268283844
0	7134	0.1509302407503128
1	6258	-0.1615004539489746
0	3396	-0.5233961939811707
0	4978	0.29205435514450073
0	5610	0.1166754886507988
0	5666	0.010300302878022194
0	5658	-0.0014660785673186183
0	5690	0.005847312044352293
0	5714	0.00437307171523571
0	5714	0.0
0	5742	0.005074547603726387
0	5774	0.005784387234598398
0	5764	-0.0018026678590103984
0	5758	-0.001079149660654366
0	5756	-0.0003589203697629273
0	5780	0.004297840408980846
0	5812	0.005719460546970367
0	5798	-0.002497561741620302
0	5830	0.005700170993804932
0	5884	0.009602048434317112
0	5894	0.0017744338838383555
0	5930	0.006376044824719429
0	5932	0.00035346514778211713
0	5946	0.0024674241431057453
0	5886	-0.010539382696151733
0	5802	-0.014710173942148685
0	5654	-0.025852130725979805
0	5408	-0.04290647804737091
0	5204	-0.035577673465013504
0	5080	-0.021665949374437332
0	5008	-0.012672188691794872
0	4978	-0.005346767604351044
0	4982	0.0007183649577200413
0	5050	0.012097347527742386
0	5084	0.006046092603355646
0	5152	0.012130005285143852
0	5208	0.010020039975643158
0	5258	0.008970540948212147
0	5286	0.005036514718085527
0	5300	0.00252473633736372
0	5330	0.0054236468859016895
0	5360	0.005437146406620741
0	5402	0.007631091400980949
0	5482	0.01456734910607338
0	5524	0.0076606920920312405
0	5568	0.008036823943257332
0	5542	-0.004755169618874788
0	5536	-0.001099156099371612
0	5574	0.006972476840019226
0	5576	0.00036754796747118235
0	5534	-0.0077330972999334335
0	5402	-0.024357838556170464
0	5356	-0.008515994995832443
0	5350	-0.0011147443437948823
0	5378	0.005221412982791662
0	5370	-0.0014965578448027372
0	5408	0.007127850782126188
0	5892	0.0909261703491211
0	7006	0.20864810049533844
1	5806	-0.222255140542984
0	3306	-0.46096545457839966
0	4898	0.29664596915245056
0	5650	0.1401938796043396
0	5730	0.014852588064968586
0	5714	-0.0029580695554614067
0	5714	0.0
0	5746	0.005872996523976326
0	5748	0.000365858111763373
0	5748	0.0
0	5744	-0.0007274931413121521
0	5732	-0.002176620764657855
0	5796	0.011580497026443481
0	5736	-0.010828239843249321
0	5808	0.012967832386493683
0	5848	0.007190278265625238
0	5836	-0.002152903936803341
0	5850	0.002507702214643359
0	5868	0.0032182701397687197
0	5904	0.006423830054700375
0	5926	0.00391798373311758
0	5932	0.0010663254652172327
0	5932	0.0
0	5924	-0.0014139937702566385
0	5858	-0.01162654161453247
0	5670	-0.0330195315182209
0	5424	-0.04313267022371292
0	5220	-0.03575726971030235
0	5058	-0.028426704928278923
0	4976	-0.014459360390901566
0	4940	-0.006424671038985252
0	4972	0.005740391090512276
0	5000	0.004973297938704491
0	5050	0.008875529281795025
0	5132	0.014607728458940983
0	5166	0.0060784476809203625
0	5238	0.012914180755615234
0	5266	0.005036514718085527
0	5314	0.008658945560455322
0	5332	0.003255601041018963
0	5360	0.0050770011730492115
0	5362	0.0003634865570347756
0	5412	0.009107579477131367
0	5400	-0.002190927043557167
0	5434	0.006220346782356501
0	5434	0.0
0	5514	0.014706783927977085
0	5556	0.007736326660960913
0	5554	-0.0003690627054311335
0	5530	-0.004437322728335857
0	5556	0.004818205256015062
0	5606	0.009287005290389061
0	5558	-0.008933556266129017
0	5432	-0.02350512519478798
0	5404	-0.005239390302449465
0	5368	-0.00675548892468214
0	5382	0.002632106887176633
0	5402	0.0037611424922943115
0	5396	-0.0011270568938925862
0	5856	0.08622521162033081
0	7008	0.21475708484649658
0	6308	-0.12883910536766052
1	4348	-0.357816606760025
0	4340	-0.0014662935864180326
0	5536	0.2201659232378006
0	5678	0.026075460016727448
0	5674	-0.0007322252495214343
0	5708	0.0062074000015854836
0	5734	0.004734101239591837
0	5760	0.004722063895314932
0	5770	0.001811484806239605
0	5782	0.002168413484469056
0	5762	-0.0036049026530236006
0	5754	-0.001438935287296772
0	5764	0.0017948595341295004
0	5776	0.0021495872642844915
0	5754	-0.003932878840714693
0	5766	0.0021421429701149464
0	5828	0.011053926311433315
0	5872	0.007831968367099762
0	5910	0.006750275380909443
0	5958	0.008508827537298203
0	5992	0.006014576647430658
0	6010	0.0031760595738887787
0	5982	-0.004923798609524965
0	5930	-0.009113321080803871
0	5752	-0.03109351359307766
0	5510	-0.042182326316833496
0	5264	-0.04285266250371933
0	5102	-0.02824169211089611
0	5000	-0.017860060557723045
0	4952	-0.008504405617713928
0	4952	0.0
0	4956	0.0007118619396351278
0	5018	0.010993687435984612
0	5050	0.005691586993634701
0	5142	0.01642446592450142
0	5198	0.010029252618551254
0	5260	0.011137724854052067
0	5316	0.010088514536619186
0	5328	0.0021676039323210716
0	5382	0.009780245833098888
0	5368	-0.002541757421568036
0	5380	0.0021838564425706863
0	5402	0.0040128412656486034
0	5414	0.0021936504635959864
0	5392	-0.004030583426356316
0	5426	0.006242884788662195
0	5438	0.002207965822890401
0	5442	0.0007377532892860472
0	5464	0.004068398382514715
0	5464	0.0
0	5606	0.026412706822156906
0	5604	-0.00037290240288712084
0	5692	0.0164492130279541
0	5700	0.0014980899868533015
0	5686	-0.002625426510348916
0	5612	-0.013882982544600964
0	5582	-0.0056246486492455006
0	5486	-0.01796317659318447
0	5410	-0.014186867512762547
0	5376	-0.0063306065276265144
0	5382	0.0011142337461933494
0	5384	0.00037042523035779595
0	5404	0.003694490296766162
0	5530	0.02322009950876236
0	6492	0.1767624169588089
0	6912	0.07653991132974625
1	5404	-0.271982878446579
0	3422	-0.35716432332992554
0	5208	0.32554805278778076
0	5662	0.08281447738409042
0	5730	0.01238284818828106
0	5758	0.005087640602141619
0	5746	-0.002175436820834875
0	5766	0.0036182068288326263
0	5768	0.000361054262612015
0	5796	0.005043348763138056
0	5772	-0.004313288256525993
0	5818	0.008250627666711807
0	5804	-0.0025054283905774355
0	5804	0.0
0	5794	-0.0017823617672547698
0	5784	-0.001780373277142644
0	5836	0.009248062036931515
0	5858	0.0039093042723834515
0	5904	0.008166356943547726
0	5920	0.002836812287569046
0	5928	0.0014158289413899183
0	5996	0.012010032311081886
0	5970	-0.004578324966132641
0	5928	-0.007371524814516306
0	5860	-0.01189643144607544
0	5658	-0.03524116426706314
0	5412	-0.04284917935729027
0	5192	-0.03831862285733223
0	5016	-0.030715173110365868
0	4924	-0.01619471237063408
0	4836	-0.015673423185944557
0	4912	0.013581939041614532
0	4936	0.0042512989602983
0	5020	0.014903482049703598
0	5090	0.01246690284460783
0	5152	0.011084228754043579
0	5194	0.007535885088145733
0	5252	0.010441170074045658
0	5290	0.006861931178718805
0	5302	0.002173178130760789
0	5336	0.006175754591822624
0	5382	0.008377548307180405
0	5390	0.0014608313795179129
0	5428	0.006956479512155056
0	5422	-0.0011009174631908536
0	5442	0.003678093198686838
0	5440	-0.00036858205567114055
0	5440	0.0
0	5458	0.003333909437060356
0	5440	-0.003343114862218499
0	5496	0.010431801900267601
0	5514	0.0033620980102568865
0	5534	0.0037469088565558195
0	5608	0.01390141248703003
0	5652	0.008282301016151905
0	5748	0.01809408888220787
0	5712	-0.0067814490757882595
0	5644	-0.012785319238901138
0	5622	-0.004124742466956377
0	5552	-0.013074662536382675
0	5442	-0.020465878769755363
0	5396	-0.008526413701474667
0	5372	-0.004435299895703793
0	5386	0.002580328145995736
0	5434	0.008826990611851215
0	5438	0.0007340347510762513
0	6426	0.18098995089530945
0	7256	0.15091092884540558
1	6258	-0.17927928268909454
0	3170	-0.5515270829200745
0	4780	0.291248083114624
0	5674	0.16226813197135925
0	5722	0.008697018027305603
0	5700	-0.003978156019002199
0	5718	0.0032495276536792517
0	5758	0.007208332885056734
0	5716	-0.007554410025477409
0	5730	0.0025139765348285437
0	5774	0.007887378334999084
0	5758	-0.0028627319261431694
0	5764	0.0010714923264458776
0	5748	-0.002852761885151267
0	5782	0.006053700111806393
0	5748	-0.006044802721589804
0	5770	0.003908100537955761
0	5782	0.002130202716216445
0	5814	0.005679398309439421
0	5868	0.009578204713761806
0	5904	0.006377024110406637
0	5960	0.009903324767947197
0	5972	0.002117049414664507
0	5966	-0.001055235741659999
0	5904	-0.010867787525057793
0	5832	-0.01258154772222042
0	5656	-0.03067520447075367
0	5366	-0.05047926306724548
0	5178	-0.03273816406726837
0	5038	-0.024557383731007576
0	4954	-0.01492802519351244
0	4932	-0.0039401575922966
0	4940	0.0014178699348121881
0	4996	0.009915716014802456
0	5038	0.007466666866093874
0	5106	0.01213808823376894
0	5130	0.004299226216971874
0	5178	0.00862874835729599
0	5230	0.009380411356687546
0	5256	0.004703952465206385
0	5316	0.010886394418776035
0	5354	0.006913867313414812
0	5414	0.010943446308374405
0	5410	-0.0007311188383027911
0	5422	0.0021978828590363264
0	5468	0.008443775586783886
0	5478	0.0018387535819783807
0	5472	-0.0011052301852032542
0	5500	0.005167577415704727
0	5526	0.004807751625776291
0	5566	0.007412165869027376
0	5576	0.0018569183303043246
0	5654	0.014518470503389835
0	5674	0.0037300442345440388
0	5618	-0.010463117621839046
0	5590	-0.0052408939227461815
0	5540	-0.009372890926897526
0	5462	-0.014632316306233406
0	5412	-0.009374062530696392
0	5382	-0.0056162248365581036
0	5426	0.00821948517113924
0	5410	-0.0029801446944475174
0	5408	-0.0003714158374350518
0	5938	0.09814088046550751
0	7148	0.22276225686073303
1	6270	-0.1595744639635086
0	3364	-0.5244603753089905
0	4462	0.20028941333293915
0	5480	0.18650837242603302
0	5690	0.0384155735373497
0	5688	-0.00036489692865870893
0	5738	0.00910183135420084
0	5728	-0.0018161344341933727
0	5722	-0.0010876132873818278
0	5768	0.008322678506374359
0	5750	-0.00324991880916059
0	5760	0.0018024513265118003
0	5712	-0.008637133054435253
0	5762	0.008984080515801907
0	5778	0.002870401367545128
0	5770	-0.0014330411795526743
0	5782	0.0021469464991241693
0	5816	0.006075551267713308
0	5826	0.0017852041637524962
0	5842	0.0028537455946207047
0	5904	0.011043556965887547
0	5952	0.008533939719200134
0	5942	-0.0017735736910253763
0	5946	0.0007074220338836312
0	5892	-0.009520228020846844
0	5794	-0.017225822433829308
0	5574	-0.03858701512217522
0	5338	-0.04135369136929512
0	5046	-0.051187362521886826
0	4976	-0.012335237115621567
0	4910	-0.011780665256083012
0	4910	0.0
0	4932	0.0039225476793944836
0	5000	0.012090465053915977
0	5060	0.010698492638766766
0	5094	0.006085265427827835
0	5110	0.0028738384135067463
0	5182	0.012981081381440163
0	5230	0.008682544343173504
0	5272	0.007619831245392561
0	5296	0.004367289133369923
0	5364	0.012408155016601086
0	5368	0.0007316537667065859
0	5410	0.007698511704802513
0	5408	-0.00036738591734319925
0	5402	-0.0011046604486182332
0	5458	0.010333501733839512
0	5526	0.0125728789716959
0	5528	0.0003704527043737471
0	5588	0.011134066618978977
0	5602	0.0026020370423793793
0	5576	-0.004841412417590618
0	5582	0.0011198626598343253
0	5478	-0.019454525783658028
0	5390	-0.01650969870388508
0	5388	-0.00037640208029188216
0	5362	-0.004905722104012966
0	5408	0.008690942078828812
0	5412	0.0007554010953754187
0	5592	0.03391491249203682
0	6668	0.20195448398590088
0	6960	0.05420926213264465
1	5396	-0.2867164611816406
0	4156	-0.22667722404003143
0	5400	0.22858402132987976
0	5712	0.057210616767406464
0	5732	0.003653546329587698
0	5728	-0.0007279521669261158
0	5750	0.00399051932618022
0	5730	-0.0036163749173283577
0	5728	-0.00036064194864593446
0	5734	0.0010791237000375986
0	5756	0.003948029596358538
0	5754	-0.0003580806660465896
0	5774	0.003573470748960972
0	5796	0.003922267816960812
0	5766	-0.005336052738130093
0	5804	0.00674668001011014
0	5834	0.005317577626556158
0	5906	0.012739153578877449
0	5940	0.006004450377076864
0	5942	0.0003525015781633556
0	6006	0.011255848221480846
0	6008	0.00035087307333014905
0	5942	-0.011543035507202148
0	5824	-0.020571349188685417
0	5626	-0.034430790692567825
0	5398	-0.03958699852228165
0	5190	-0.03611654415726662
0	4998	-0.03338124230504036
0	4918	-0.013956896960735321
0	4892	-0.004582628142088652
0	4930	0.006780064199119806
0	4972	0.007514582015573978
0	5026	0.009614814072847366
0	5100	0.013205167837440968
0	5158	0.010387811809778214
0	5206	0.008626369759440422
0	5254	0.00865343026816845
0	5298	0.007956025190651417
0	5370	0.013052936643362045
0	5394	0.004360412247478962
0	5420	0.004733526613563299
0	5428	0.0014594456879422069
0	5406	-0.004021447617560625
0	5450	0.008060970343649387
0	5530	0.014687343500554562
0	5578	0.00882515124976635
0	5566	-0.0022093479055911303
0	5556	-0.0018441565334796906
0	5568	0.0022177593782544136
0	5644	0.014078071340918541
0	5588	-0.010392438620328903
0	5516	-0.01339634507894516
0	5416	-0.018662983551621437
0	5392	-0.004493820946663618
0	5402	0.001877487637102604
0	5416	0.002632172778248787
0	5426	0.0018799112876877189
0	5684	0.04843008890748024
0	6862	0.2201814353466034
0	6808	-0.009972422383725643
1	5042	-0.32233336567878723
0	3938	-0.20136676728725433
0	5590	0.3032268285751343
0	5716	0.02304793708026409
0	5708	-0.0014578853733837605
0	5742	0.006175380665808916
0	5742	0.0
0	5720	-0.00397121487185359
0	5742	0.003961156588047743
0	5734	-0.0014372117584571242
0	5764	0.005378593225032091
0	5762	-0.0003578372416086495
0	5768	0.0010713775409385562
0	5786	0.0032072220928967
0	5784	-0.00035564828431233764
0	5808	0.004261363763362169
0	5862	0.009575034491717815
0	5886	0.004248138517141342
0	5950	0.011306355707347393
0	5996	0.008108203299343586
0	5994	-0.0003518029989209026
0	6038	0.007721285335719585
0	5982	-0.009797175414860249
0	5894	-0.015344912186264992
0	5698	-0.03407787159085274
0	5442	-0.04443364590406418
0	5138	-0.05275701731443405
0	4986	-0.0264225285500288
0	4882	-0.018151989206671715
0	4834	-0.008475474081933498
0	4846	0.002143775811418891
0	4932	0.015381679870188236
0	5004	0.012801820412278175
0	5084	0.014273819513618946
0	5098	0.0025073429569602013
0	5170	0.012942036613821983
0	5222	0.009379170835018158
0	5268	0.008322980254888535
0	5284	0.0029028630815446377
0	5310	0.004730254411697388
0	5358	0.008755289949476719
0	5356	-0.00036570648080669343
0	5426	0.01283147931098938
0	5412	-0.0025716701056808233
0	5470	0.010678514838218689
0	5474	0.0007378712180070579
0	5462	-0.0022181691601872444
0	5498	0.006670949514955282
0	5574	0.014116947539150715
0	5644	0.013032792136073112
0	5662	0.0033586265053600073
0	5632	-0.005609293933957815
0	5650	0.003374114166945219
0	5594	-0.010519065894186497
0	5486	-0.0203249491751194
0	5416	-0.013191120699048042
0	5408	-0.0015078028663992882
0	5390	-0.003386811353266239
0	5394	0.0007507225382141769
0	5390	-0.0007483256049454212
0	5750	0.06711659580469131
0	6766	0.18835976719856262
0	6780	0.002566421404480934
1	5276	-0.27274706959724426
0	3370	-0.34524816274642944
0	5284	0.3503526449203491
0	5668	0.07024133205413818
0	5718	0.009121202863752842
0	5750	0.00582163967192173
0	5738	-0.0021769630257040262
0	5738	0.0
0	5764	0.004693818278610706
0	5784	0.003601786680519581
0	5826	0.0075475312769412994
0	5806	-0.0035851718857884407
0	5834	0.005009183660149574
0	5828	-0.0010710969800129533
0	5808	-0.003562564728781581
0	5816	0.0014224076876416802
0	5860	0.007812037598341703
0	5864	0.0007092785672284663
0	5908	0.00779275968670845
0	5964	0.0099019231274724
0	6016	0.009177658706903458
0	6018	0.00035211266367696226
0	6044	0.004563217982649803
0	6022	-0.0038470507133752108
0	5934	-0.0153333256021142
0	5746	-0.03265438601374626
0	5460	-0.0495753176510334
0	5172	-0.0499018132686615
0	5020	-0.026425283402204514
0	4910	-0.01931903325021267
0	4874	-0.0063925753347575665
0	4892	0.003203911241143942
0	4932	0.007056083995848894
0	4992	0.010606078431010246
0	5046	0.009583643637597561
0	5126	0.014254659414291382
0	5186	0.010730764828622341
0	5248	0.011125067248940468
0	5268	0.003599280258640647
0	5322	0.009747058153152466
0	5360	0.006878159940242767
0	5394	0.006171494722366333
0	5392	-0.000363936327630654
0	5434	0.007663208059966564
0	5436	0.000365791202057153
0	5450	0.0025663585402071476
0	5470	0.0036744442768394947
0	5464	-0.0011049723252654076
0	5462	-0.00036923078005202115
0	5446	-0.0029619757551699877
0	5584	0.025628963485360146
0	5606	0.004096732474863529
0	5682	0.014188634231686592
0	5730	0.008981475606560707
0	5688	-0.007873130030930042
0	5616	-0.013517573475837708
0	5556	-0.011273815296590328
0	5470	-0.016149425879120827
0	5368	-0.019118307158350945
0	5358	-0.0018702775705605745
0	5380	0.004103150684386492
0	5398	0.0033465956803411245
0	5404	0.0011120446724817157
0	5530	0.0232850369066
0	6480	0.17498189210891724
0	7110	0.11502788215875626
1	5870	-0.22370287775993347
0	3034	-0.5095342993736267
0	4788	0.31936973333358765
0	5656	0.15850792825222015
0	5700	0.00801866129040718
0	5732	0.0058197337202727795
0	5754	0.00399288535118103
0	5762	0.0014487854205071926
0	5792	0.0054222093895077705
0	5792	0.0
0	5790	-0.00035996685619466007
0	5804	0.0025149399880319834
0	5798	-0.0010756414849311113
0	5804	0.0010734860552474856
0	5780	-0.004284795839339495
0	5836	0.00998620968312025
0	5832	-0.0007123268442228436
0	5828	-0.0007116931374184787
0	5924	0.017070714384317398
0	5952	0.004972002934664488
0	6000	0.008506515994668007
0	6012	0.002121065743267536
0	6016	0.0007047713152132928
0	5992	-0.004212595522403717
0	5950	-0.007344797253608704
0	5768	-0.0317220538854599
0	5464	-0.05287263169884682
0	5228	-0.04103158786892891
0	5014	-0.03727183863520622
0	4874	-0.024592755362391472
0	4862	-0.0021359154488891363
0	4878	0.0028650215826928616
0	4942	0.011335324496030807
0	4960	0.0031851641833782196
0	5052	0.01634683646261692
0	5130	0.013912671245634556
0	5136	0.0010740497382357717
0	5218	0.014733009040355682
0	5292	0.01333910133689642
0	5312	0.003616026369854808
0	5348	0.006527731195092201
0	5384	0.0065452163107693195
0	5404	0.0036455104127526283
0	5414	0.0018271291628479958
0	5416	0.0003662958915811032
0	5412	-0.0007342234021052718
0	5452	0.007361331023275852
0	5480	0.005164971575140953
0	5472	-0.0014788706321269274
0	5478	0.0011122508440166712
0	5538	0.01115518156439066
0	5578	0.007458141073584557
0	5660	0.015330541878938675
0	5716	0.010492918081581593
0	5678	-0.007132489234209061
0	5666	-0.002256204606965184
0	5602	-0.012040788307785988
0	5488	-0.02142910845577717
0	5416	-0.013512161560356617
0	5394	-0.0041183591820299625
0	5396	0.00037318537943065166
0	5414	0.0033475500531494617
0	5402	-0.0022243093699216843
0	5486	0.015526036731898785
0	6278	0.14591547846794128
0	7140	0.1576252579689026
1	6272	-0.15680135786533356
0	3224	-0.5468703508377075
0	4750	0.27709850668907166
0	5552	0.146110400557518
0	5652	0.018191741779446602
0	5700	0.008715968579053879
0	5690	-0.0018123603658750653
0	5710	0.0036184685304760933
0	5736	0.00469562690705061
0	5716	-0.003605075879022479
0	5740	0.004318203777074814
0	5740	0.0
0	5772	0.005738743580877781
0	5784	0.0021481765434145927
0	5798	0.0025016379076987505
0	5812	0.0024977698922157288
0	5816	0.0007126568234525621
0	5850	0.006051975768059492
0	5884	0.00604716781526804
0	5922	0.0067503550089895725
0	5968	0.008159114047884941
0	5992	0.004247737117111683
0	6012	0.003529287176206708
0	5998	-0.002461870200932026
0	5898	-0.017522750422358513
0	5758	-0.02446012943983078
0	5442	-0.055099617689847946
0	5246	-0.03416777029633522
0	5048	-0.03456462547183037
0	4948	-0.01758272759616375
0	4904	-0.00783708319067955
0	4926	0.0039506289176642895
0	4972	0.00817709881812334
0	5014	0.0074562388472259045
0	5070	0.009973404929041862
0	5152	0.014654546044766903
0	5200	0.00860636681318283
0	5232	0.005754429847002029
0	5300	0.012263299897313118
0	5322	0.003977964166551828
0	5314	-0.001449975767172873
0	5354	0.007268586196005344
0	5372	0.0032785292714834213
0	5376	0.0007303357124328613
0	5402	0.004758999217301607
0	5392	-0.0018348174635320902
0	5414	0.004046994261443615
0	5462	0.008851624093949795
0	5530	0.012569781392812729
0	5580	0.009262690320611
0	5642	0.011510043404996395
0	5656	0.0026042957324534655
0	5648	-0.0014912760816514492
0	5628	-0.003736641490831971
0	5586	-0.00786507036536932
0	5460	-0.023641254752874374
0	5374	-0.01616622321307659
0	5372	-0.00037611895822919905
0	5398	0.004885687492787838
0	5404	0.0011249999515712261
0	5418	0.002617540070787072
0	5630	0.039510469883680344
0	6686	0.19594988226890564
0	6756	0.012852841056883335
1	5118	-0.2975836992263794
0	3842	-0.2317499965429306
0	5426	0.28998950123786926
0	5672	0.04497422277927399
0	5698	0.004740661475807428
0	5706	0.001455145189538598
0	5712	0.0010888238903135061
0	5736	0.004344835411757231
0	5740	0.000722473778296262
0	5738	-0.0003604383091442287
0	5742	0.0007193123456090689
0	5774	0.005742794368416071
0	5782	0.0014324253425002098
0	5766	-0.0028585719410330057
0	5780	0.0024967303033918142
0	5828	0.008547516539692879
0	5832	0.0007112459861673415
0	5868	0.006394013296812773
0	5926	0.01028855238109827
0	5994	0.012042645364999771
0	6024	0.005301477387547493
0	6032	0.0014100892003625631
0	6028	-0.0007026830571703613
0	5972	-0.009800032712519169
0	5828	-0.02511219121515751
0	5592	-0.04105347394943237
0	5350	-0.04205136373639107
0	5138	-0.03685289993882179
0	4980	-0.02754436619579792
0	4902	-0.013734006322920322
0	4894	-0.0014241125900298357
0	4946	0.009269051253795624
0	4984	0.006729395594447851
0	5044	0.010653156787157059
0	5050	0.0010692899813875556
0	5118	0.012165449559688568
0	5202	0.015080790035426617
0	5238	0.006482982076704502
0	5300	0.011198612861335278
0	5346	0.00833071768283844
0	5350	0.0007261285209096968
0	5374	0.004367129877209663
0	5386	0.002188875572755933
0	5402	0.0029255447443574667
0	5422	0.003665062366053462
0	5446	0.004407713655382395
0	5442	-0.0007363408803939819
0	5470	0.005166750866919756
0	5462	-0.0014798372285440564
0	5470	0.0014840832445770502
0	5490	0.003722268855199218
0	5564	0.013818172737956047
0	5600	0.006741994060575962
0	5660	0.011266759596765041
0	5700	0.007525870110839605
0	5680	-0.0037659581284970045
0	5674	-0.00112916377838701
0	5600	-0.01389810536056757
0	5506	-0.0176034364849329
0	5376	-0.024265501648187637
0	5340	-0.006699917837977409
0	5350	0.0018559532472863793
0	5340	-0.001851326203905046
0	5348	0.0014778143959119916
0	5838	0.09034700691699982
0	6940	0.2022092640399933
0	6570	-0.06714414060115814
1	4822	-0.31460729241371155
0	4216	-0.10934154689311981
0	5594	0.2502663731575012
0	5718	0.022486580535769463
0	5698	-0.0036188180092722178
0	5726	0.005056463647633791
0	5732	0.0010813148692250252
0	5744	0.002158351009711623
0	5788	0.007898705080151558
0	5794	0.001074896426871419
0	5794	0.0
0	5824	0.005352873355150223
0	5842	0.003204823937267065
0	5836	-0.0010659213876351714
0	5832	-0.0007091611623764038
0	5836	0.0007080397917889059
0	5862	0.0045958589762449265
0	5910	0.008474576286971569
0	5912	0.000352671486325562
0	5964	0.009156971238553524
0	6034	0.012305744923651218
0	6044	0.0017535040387883782
0	6044	0.0
0	5994	-0.008706149645149708
0	5860	-0.02324424870312214
0	5652	-0.03597453981637955
0	5350	-0.05213848501443863
0	5052	-0.0514473132789135
0	4954	-0.016995791345834732
0	4880	-0.012982608750462532
0	4880	0.0
0	4946	0.011690658517181873
0	4982	0.006349355448037386
0	5046	0.011328502558171749
0	5080	0.006042224355041981
0	5166	0.01533942949026823
0	5226	0.010737678967416286
0	5242	0.0028720502741634846
0	5290	0.008642108179628849
0	5328	0.006862178444862366
0	5344	0.0028974658343940973
0	5404	0.01089509204030037
0	5442	0.006917811464518309
0	5458	0.0029198501724749804
0	5464	0.0010974672622978687
0	5468	0.0007332901586778462
0	5474	0.0011024142149835825
0	5498	0.004420160781592131
0	5496	-0.0003692807804327458
0	5492	-0.0007404573261737823
0	5532	0.007426201831549406
0	5502	-0.005587008316069841
0	5528	0.004858420696109533
0	5512	-0.0029994375072419643
0	5602	0.016922807320952415
0	5626	0.004520057700574398
0	5710	0.01582278497517109
0	5742	0.006014133337885141
0	5612	-0.02432725951075554
0	5608	-0.0007454712758772075
0	5572	-0.006679035257548094
0	5462	-0.02032119780778885
0	5356	-0.019520219415426254
0	5356	0.0
0	5358	0.0003667660930659622
0	5354	-0.0007322877645492554
0	5396	0.007680210750550032
0	5750	0.06466619670391083
0	7046	0.2360139787197113
0	6616	-0.07748120278120041
1	4802	-0.32435333728790283
0	4394	-0.07318910956382751
0	5528	0.20465867221355438
0	5700	0.031025651842355728
0	5720	0.003602392040193081
0	5746	0.004675922449678183
0	5750	0.0007181758410297334
0	5750	0.0
0	5758	0.001431827200576663
0	5778	0.0035739813465625048
0	5772	-0.0010703710140660405
0	5770	-0.0003562818455975503
0	5772	0.00035571574699133635
0	5792	0.00355201936326921
0	5802	0.0017730706604197621
0	5790	-0.0021251726429909468
0	5822	0.0056616454385221004
0	5852	0.005304289516061544
0	5898	0.008127974346280098
0	5892	-0.0010583876864984632
0	5986	0.016553763300180435
0	6010	0.004216246772557497
0	6010	0.0
0	5962	-0.008373552933335304
0	5840	-0.02120804786682129
0	5620	-0.03813750296831131
0	5382	-0.041194524616003036
0	5152	-0.039813052862882614
0	5010	-0.024665337055921555
0	4918	-0.016170989722013474
0	4872	-0.008166743442416191
0	4908	0.0063887182623147964
0	4948	0.007077056914567947
0	5016	0.012072291225194931
0	5072	0.009982293471693993
0	5142	0.01252609584480524
0	5168	0.004669372458010912
0	5214	0.008290081284940243
0	5290	0.013740899972617626
0	5318	0.0050767557695508
0	5348	0.005454545374959707
0	5338	-0.0018228660337626934
0	5402	0.011697046458721161
0	5404	0.0003663585230242461
0	5434	0.005508427508175373
0	5458	0.004416690208017826
0	5462	0.0007376172579824924
0	5470	0.001478506252169609
0	5492	0.004075482953339815
0	5430	-0.01151431817561388
0	5480	0.009312373585999012
0	5476	-0.000747337588109076
0	5462	-0.002624409506097436
0	5458	-0.0007524077082052827
0	5530	0.013586272485554218
0	5556	0.00491573940962553
0	5634	0.014753168448805809
0	5646	0.002266117837280035
0	5790	0.027109114453196526
0	5750	-0.007493630517274141
0	5626	-0.02311018295586109
0	5634	0.001484028180129826
0	5614	-0.0036934898234903812
0	5496	-0.021702613681554794
0	5390	-0.0194383654743433
0	5374	-0.002928400645032525
0	5378	0.0007310654036700726
0	5374	-0.0007301312871277332
0	5388	0.002552974270656705
0	5738	0.06378635764122009
0	6998	0.22904647886753082
0	6702	-0.05327509716153145
1	4896	-0.3224117159843445
0	3762	-0.2030559927225113
0	5284	0.2752293646335602
0	5682	0.07203707098960876
0	5706	0.004338080994784832
0	5742	0.006497569382190704
0	5736	-0.001081158989109099
0	5752	0.002878871513530612
0	5750	-0.0003591652784962207
0	5772	0.0039444430731236935
0	5756	-0.0028636199422180653
0	5764	0.0014293030835688114
0	5808	0.007846866734325886
0	5786	-0.003916960209608078
0	5800	0.002489213366061449
0	5812	0.002131514484062791
0	5816	0.0007098071509972215
0	5854	0.0067421309649944305
0	5874	0.003546308958902955
0	5900	0.004603453911840916
0	5960	0.010606703348457813
0	6000	0.007056748028844595
0	5978	-0.0038697421550750732
0	5978	0.0
0	5936	-0.007336415350437164
0	5780	-0.02716129645705223
0	5552	-0.039603959769010544
0	5234	-0.05518469959497452
0	5050	-0.03202413395047188
0	4936	-0.020067831501364708
0	4878	-0.010316858068108559
0	4860	-0.003202125197276473
0	4906	0.008130272850394249
0	4956	0.008856977336108685
0	5040	0.014943782240152359
0	5078	0.006787087768316269
0	5136	0.01040035393089056
0	5202	0.011877481825649738
0	5254	0.009388993494212627
0	5268	0.002535374602302909
0	5312	0.007992636412382126
0	5334	0.0040070912800729275
0	5388	0.009861333295702934
0	5428	0.0073234145529568195
0	5412	-0.002935779746621847
0	5438	0.004781990312039852
0	5412	-0.004792979918420315
0	5444	0.005913733504712582
0	5486	0.007781428284943104
0	5512	0.0048286449164152145
0	5528	0.0029786282684653997
0	5512	-0.0029866346158087254
0	5516	0.0007489328272640705
0	5544	0.005257689394056797
0	5586	0.007908015511929989
0	5620	0.0064158206805586815
0	5738	0.022289102897047997
0	5736	-0.00037733951467089355
0	5666	-0.01316531840711832
0	5662	-0.0007494098390452564
0	5614	-0.008952328935265541
0	5470	-0.02673465944826603
0	5406	-0.011837383732199669
0	5396	-0.0018439071718603373
0	5414	0.003310081083327532
0	5408	-0.0011008366709575057
0	5402	-0.00109861942473799
0	5804	0.07348819077014923
0	7020	0.22148017585277557
0	6668	-0.06343256682157516
1	4908	-0.3145178556442261
0	3878	-0.18450845777988434
0	5218	0.2421453297138214
0	5672	0.08212437480688095
0	5710	0.00686374818906188
0	5702	-0.001442411681637168
0	5728	0.0046804118901491165
0	5712	-0.0028748023323714733
0	5740	0.005022841971367598
0	5706	-0.0060899159871041775
0	5728	0.003935974556952715
0	5732	0.0007147792493924499
0	5738	0.0010707656620070338
0	5786	0.008554828353226185
0	5786	0.0
0	5792	0.0010665528243407607
0	5820	0.0049721794202923775
0	5832	0.0021299002692103386
0	5880	0.008514764718711376
0	5916	0.006378002930432558
0	5996	0.014152111485600471
0	6000	0.0007060152129270136
0	6000	0.0
0	5972	-0.004909639246761799
0	5868	-0.018174616619944572
0	5662	-0.035904765129089355
0	5416	-0.04281338304281235
0	5152	-0.045942340046167374
0	4978	-0.030395137146115303
0	4856	-0.02156798169016838
0	4852	-0.0007147792493924499
0	4868	0.002860071137547493
0	4882	0.0024878864642232656
0	4954	0.012820360250771046
0	5018	0.01144464872777462
0	5106	0.01580156944692135
0	5156	0.009010307490825653
0	5202	0.00831806380301714
0	5268	0.01197141408920288
0	5282	0.00254665850661695
0	5338	0.01021288987249136
0	5348	0.0018280644435435534
0	5372	0.0043976446613669395
0	5410	0.006978537887334824
0	5386	-0.004417665768414736
0	5412	0.004797579254955053
0	5450	0.007028273306787014
0	5452	0.0003707548603415489
0	5454	0.00037162748049013317
0	5478	0.004471327643841505
0	5494	0.00298901554197073
0	5542	0.00899516511708498
0	5656	0.02142481319606304
0	5684	0.005273599177598953
0	5728	0.008302095346152782
0	5738	0.0018885027384385467
0	5662	-0.01434575766324997
0	5646	-0.0030154921114444733
0	5570	-0.01427927240729332
0	5452	-0.02208855375647545
0	5402	-0.009324878454208374
0	5410	0.0014868966536596417
0	5414	0.0007409602985717356
0	5422	0.0014770685229450464
0	5406	-0.002945652697235346
0	5984	0.10615893453359604
0	7050	0.1947411447763443
0	6572	-0.08632729202508926
1	4860	-0.3066598176956177
0	4166	-0.12461543828248978
0	5600	0.25922220945358276
0	5702	0.01840933784842491
0	5726	0.004322403110563755
0	5734	0.0014377456391230226
0	5744	0.0017937005031853914
0	5746	0.0003579738549888134
0	5790	0.007859762758016586
0	5760	-0.00534810172393918
0	5760	0.0
0	5784	0.004262927919626236
0	5784	0.0
0	5796	0.0021239691413939
0	5836	0.007069302722811699
0	5810	-0.004590179305523634
0	5858	0.008467897772789001
0	5894	0.006346072535961866
0	5944	0.008805917575955391
0	6004	0.01054963655769825
0	6038	0.005965610034763813
0	6082	0.007699127774685621
0	6054	-0.004881507251411676
0	6044	-0.0017368147382512689
0	5866	-0.030802244320511818
0	5648	-0.0376259945333004
0	5362	-0.049298446625471115
0	5076	-0.04931091517210007
0	4896	-0.031197642907500267
0	4860	-0.006318154279142618
0	4832	-0.00496383523568511
0	4870	0.006737747695297003
0	4914	0.007769275922328234
0	4976	0.010991998016834259
0	5062	0.015312663279473782
0	5134	0.012870626524090767
0	5166	0.005740802735090256
0	5188	0.00396049115806818
0	5260	0.013005154207348824
0	5272	0.0021744645200669765
0	5280	0.0014539286494255066
0	5372	0.016768939793109894
0	5396	0.004385483916848898
0	5412	0.002930582035332918
0	5436	0.0044062030501663685
0	5432	-0.0007361692260019481
0	5436	0.0007378803566098213
0	5448	0.0022193999029695988
0	5472	0.004451038781553507
0	5494	0.004092059098184109
0	5498	0.0007463707588613033
0	5504	0.0011233290424570441
0	5624	0.02254791371524334
0	5614	-0.0018840670818462968
0	5692	0.014735516160726547
0	5748	0.010590950027108192
0	5642	-0.02003452554345131
0	5672	0.005660163704305887
0	5582	-0.01691707968711853
0	5456	-0.02358255162835121
0	5354	-0.01901991479098797
0	5364	0.0018586668884381652
0	5370	0.0011117974063381553
0	5360	-0.0018477912526577711
0	5366	0.0011060588294640183
0	6064	0.12843158841133118
0	7130	0.19503092765808105
0	6414	-0.12944594025611877
1	4462	-0.3503146767616272
0	4272	-0.034261807799339294
0	5518	0.22604404389858246
0	5720	0.03659331798553467
0	5750	0.005423254799097776
0	5768	0.003247026586905122
0	5720	-0.00864024180918932
0	5762	0.007547350600361824
0	5776	0.0025108205154538155
0	5786	0.0017898052465170622
0	5778	-0.0014289626851677895
0	5764	-0.002496137050911784
0	5780	0.0028481576591730118
0	5788	0.0014216997660696507
0	5804	0.0028386241756379604
0	5798	-0.0010633522178977728
0	5848	0.008851646445691586
0	5898	0.008843504823744297
0	5944	0.008128835819661617
0	6020	0.013406402431428432
0	6060	0.007041592616587877
0	6084	0.0042131380178034306
0	6062	-0.003847902873530984
0	5988	-0.0128897400572896
0	5834	-0.026727760210633278
0	5582	-0.043619245290756226
0	5284	-0.051515500992536545
0	5070	-0.03701184317469597
0	4932	-0.024005010724067688
0	4868	-0.01127647329121828
0	4884	0.002844950184226036
0	4934	0.00886828824877739
0	4976	0.007420320063829422
0	5048	0.012761280871927738
0	5074	0.004626608919352293
0	5132	0.010362447239458561
0	5152	0.0035868436098098755
0	5250	0.017635414376854897
0	5300	0.00902538001537323
0	5332	0.005792833399027586
0	5350	0.0032674202229827642
0	5384	0.006187818478792906
0	5368	-0.002918642945587635
0	5390	0.004023212939500809
0	5428	0.006966086104512215
0	5400	-0.0051447260193526745
0	5402	0.00036837838706560433
0	5430	0.00517145823687315
0	5444	0.0025932008866220713
0	5454	0.0018580222968012094
0	5458	0.0007458233740180731
0	5500	0.007860556244850159
0	5496	-0.0007513618911616504
0	5620	0.02337505668401718
0	5626	0.0011336726602166891
0	5660	0.0064325714483857155
0	5690	0.005673007573932409
0	5674	-0.003017880953848362
0	5654	-0.0037580798380076885
0	5564	-0.016835227608680725
0	5454	-0.020487478002905846
0	5398	-0.010393209755420685
0	5376	-0.004071359988301992
0	5394	0.003322913544252515
0	5418	0.004421137738972902
0	5408	-0.0018382578855380416
0	6070	0.12148720771074295
0	7166	0.20000973343849182
1	6310	-0.15441229939460754
0	3116	-0.5726819634437561
0	4364	0.22676891088485718
0	5590	0.22410978376865387
0	5718	0.023368751630187035
0	5738	0.0036436065565794706
0	5756	0.0032723306212574244
0	5736	-0.0036287102848291397
0	5736	0.0
0	5784	0.008673758246004581
0	5782	-0.0003606376121751964
0	5790	0.0014396257465705276
0	5756	-0.0061061023734509945
0	5760	0.0007170857861638069
0	5790	0.005369800608605146
0	5832	0.007504556328058243
0	5820	-0.002141454955562949
0	5830	0.0017824888927862048
0	5878	0.008547313511371613
0	5908	0.005336115602403879
0	5960	0.009236453101038933
0	6008	0.008510537445545197
0	6016	0.0014147106558084488
0	6010	-0.0010575295891612768
0	6016	0.0010537407360970974
0	5866	-0.02624518796801567
0	5650	-0.037689317017793655
0	5362	-0.0501847080886364
0	5154	-0.03625419735908508
0	4956	-0.034695856273174286
0	4870	-0.015266994014382362
0	4860	-0.00179048883728683
0	4888	0.0049617234617471695
0	4926	0.0067129903472959995
0	4990	0.011350469663739204
0	5038	0.008549647405743599
0	5110	0.012877993285655975
0	5180	0.012568678706884384
0	5182	0.00036030408227816224
0	5298	0.0209673922508955
0	5316	0.003263115882873535
0	5366	0.009089807979762554
0	5350	-0.0029162312857806683
0	5396	0.008404896594583988
0	5406	0.0018312111496925354
0	5442	0.006607848219573498
0	5460	0.0033118268474936485
0	5470	0.0018439750419929624
0	5484	0.002587290247902274
0	5522	0.007039731368422508
0	5490	-0.005942358635365963
0	5508	0.003352329833433032
0	5498	-0.0018682043300941586
0	5514	0.0029988004826009274
0	5566	0.009776396676898003
0	5630	0.012066517025232315
0	5662	0.006042219698429108
0	5736	0.01397157832980156
0	5732	-0.0007534470641985536
0	5744	0.0022521675564348698
0	5676	-0.012699677608907223
0	5534	-0.02638751082122326
0	5434	-0.01850549690425396
0	5394	-0.007377351634204388
0	5380	-0.0025746652390807867
0	5386	0.0011007962748408318
0	5414	0.005126139614731073
0	5570	0.028507035225629807
0	6602	0.18813805282115936
0	7026	0.07663574069738388
1	5532	-0.2672502100467682
0	3166	-0.4226911962032318
0	5226	0.37290918827056885
0	5634	0.07391304522752762
0	5690	0.010130368173122406
0	5714	0.004334164317697287
0	5684	-0.005408848635852337
0	5680	-0.0007202103151939809
0	5724	0.007912341505289078
0	5746	0.003950487356632948
0	5756	0.001793271629139781
0	5752	-0.0007161699468269944
0	5762	0.0017878214130178094
0	5772	0.0017850130097940564
0	5780	0.001425821683369577
0	5800	0.003560028038918972
0	5830	0.00533466087654233
0	5864	0.006039934232831001
0	5944	0.014200846664607525
0	5968	0.004254916682839394
0	6014	0.008144475519657135
0	6048	0.006007845513522625
0	6018	-0.005285040009766817
0	6006	-0.0021067908965051174
0	5850	-0.02729053981602192
0	5598	-0.04396422579884529
0	5228	-0.06447116285562515
0	5008	-0.03837566450238228
0	4882	-0.022050844505429268
0	4834	-0.00848546251654625
0	4810	-0.004298251122236252
0	4902	0.016547953709959984
0	4962	0.01068097073584795
0	5006	0.007845002226531506
0	5064	0.010379879735410213
0	5090	0.004670490976423025
0	5214	0.022358186542987823
