0	5472	-0.005318273324519396
0	5476	0.0007569640874862671
0	5520	0.008293748833239079
0	5500	-0.0037545524537563324
0	5516	0.0029916607309132814
0	5494	-0.004098665900528431
0	5500	0.0011144406162202358
0	5522	0.004074275027960539
0	5506	-0.0029552283231168985
0	5552	0.008475616574287415
0	5542	-0.0018382353009656072
0	5530	-0.0022017539013177156
0	5544	0.002564760157838464
0	5526	-0.003292924026027322
0	5548	0.004019977990537882
0	5574	0.004746084101498127
0	5536	-0.006927900947630405
0	5568	0.005829982925206423
0	5676	0.019657809287309647
0	5696	0.0036352179013192654
0	5640	-0.010164200328290462
0	5600	-0.007250755559653044
0	5532	-0.01231363508850336
0	5412	-0.02171788550913334
0	5452	0.007240517996251583
0	5446	-0.0010861170012503862
0	5458	0.002171945758163929
0	5476	0.0032576434314250946
0	5484	0.0014477192889899015
0	5504	0.003618861548602581
0	5538	0.006151915993541479
0	5546	0.0014469337183982134
0	5970	0.07665513455867767
0	6758	0.14207755029201508
1	5260	-0.26806482672691345
0	1036	-0.7570344805717468
0	2294	0.2316303700208664
0	4580	0.4293602705001831
0	6118	0.29058343172073364
0	6652	0.10050439834594727
0	6804	0.028411922976374626
0	6764	-0.007418489549309015
0	6730	-0.006257975473999977
0	6614	-0.021196505054831505
0	6526	-0.015974247828125954
0	6464	-0.011188373900949955
0	6344	-0.021539602428674698
0	6300	-0.007859855890274048
0	6218	-0.014584345743060112
0	6174	-0.007800681050866842
0	6106	-0.012021638453006744
0	6060	-0.008110013790428638
0	6076	0.0028132691513746977
0	6006	-0.012268934398889542
0	6020	0.002445301041007042
0	5996	-0.004178127273917198
0	5970	-0.004511904437094927
0	5972	0.000346044689649716
0	5920	-0.008971498347818851
0	5928	0.0013767783530056477
0	5856	-0.012360939756035805
0	5790	-0.011310278438031673
0	5728	-0.010610018856823444
0	5598	-0.02227756567299366
0	5482	-0.020011041313409805
0	5280	-0.0348023846745491
0	5074	-0.034647081047296524
0	4960	-0.01887938193976879
0	4822	-0.02280614711344242
0	4782	-0.006658011581748724
0	4790	0.001345562981441617
0	4820	0.005103487055748701
0	4868	0.008256596513092518
0	4906	0.006607010029256344
0	5002	0.01685827411711216
0	5028	0.004606879781931639
0	5130	0.01822773925960064
0	5214	0.015120423398911953
0	5248	0.006160312797874212
0	5306	0.010570695623755455
0	5330	0.004397268872708082
0	5372	0.007731863763183355
0	5406	0.006285665091127157
0	5444	0.0070542809553444386
0	5444	0.0
0	5454	0.001869554864242673
0	5458	0.0007503564702346921
0	5436	-0.004140215460211039
0	5434	-0.0003776530211325735
0	5456	0.004166929982602596
0	5430	-0.0049392725341022015
0	5450	0.0038097172509878874
0	5442	-0.00152718392200768
0	5472	0.0057373810559511185
0	5456	-0.0030623963102698326
0	5460	0.0007657261448912323
0	5498	0.007266052532941103
0	5492	-0.0011441793758422136
0	5512	0.003801077138632536
0	5490	-0.004162987228482962
0	5526	0.006781874690204859
0	5540	0.0026252625975757837
0	5502	-0.007093787658959627
0	5538	0.006694021634757519
0	5520	-0.003333950648084283
0	5538	0.003323322394862771
0	5562	0.004417232237756252
0	5520	-0.007709722965955734
0	5554	0.006229540333151817
0	5542	-0.0021945599000900984
0	5544	0.0003652345621958375
0	5630	0.01568465307354927
0	5720	0.01638846844434738
0	5690	-0.005452430807054043
0	5592	-0.017784766852855682
0	5560	-0.005802076775580645
0	5534	-0.00471116928383708
0	5460	-0.013402559794485569
0	5452	-0.0014487154548987746
0	5496	0.007967069745063782
0	5452	-0.0079651465639472
0	5508	0.010136113502085209
0	5492	-0.0028950192499905825
0	5542	0.009044208563864231
0	5544	0.00036161570460535586
0	5610	0.011926992796361446
0	6300	0.12457872182130814
0	6274	-0.0046717217192053795
1	4364	-0.3415919542312622
0	848	-0.6331484317779541
0	2620	0.32824134826660156
0	4780	0.4074241518974304
0	6140	0.2577580213546753
0	6658	0.09778136014938354
0	6816	0.02961648441851139
0	6800	-0.0029750466346740723
0	6734	-0.012176821939647198
0	6630	-0.019050410017371178
0	6528	-0.018558276817202568
0	6436	-0.016640540212392807
0	6362	-0.013313023373484612
0	6306	-0.010025541298091412
0	6174	-0.0235366839915514
0	6170	-0.0007113134488463402
0	6086	-0.014895201660692692
0	6072	-0.002475305926054716
0	6060	-0.002115307841449976
0	6012	-0.008435159921646118
0	6002	-0.0017516611842438579
0	5964	-0.0066350046545267105
0	5956	-0.0013930487912148237
0	5954	-0.00034724632860161364
0	5930	-0.0041562276892364025
0	5926	-0.0006909576477482915
0	5836	-0.015512248501181602
0	5808	-0.004817950073629618
0	5712	-0.016499947756528854
0	5608	-0.017935363575816154
0	5470	-0.023890312761068344
0	5278	-0.033027902245521545
0	5118	-0.026841435581445694
0	4980	-0.022831805050373077
0	4882	-0.016196027398109436
0	4806	-0.012647835537791252
0	4804	-0.0003362926945555955
0	4846	0.007142695132642984
0	4858	0.0020636285189539194
0	4928	0.01216869242489338
0	4974	0.008076220750808716
0	5010	0.006378530524671078
0	5112	0.018226003274321556
0	5154	0.007561118807643652
0	5232	0.014139826409518719
0	5298	0.012032963335514069
0	5332	0.0062318239361047745
0	5386	0.009943407960236073
0	5398	0.0022189896553754807
0	5444	0.008540978655219078
0	5464	0.0037265692371875048
0	5466	0.00037390633951872587
0	5482	0.0030005625449121
0	5446	-0.006771329790353775
0	5444	-0.000377386953914538
0	5436	-0.001514176488853991
0	5428	-0.0015188718680292368
0	5450	0.004187711048871279
0	5438	-0.0022894064895808697
0	5482	0.008409143425524235
0	5480	-0.00038254083483479917
0	5474	-0.0011475493665784597
0	5512	0.007258742116391659
0	5484	-0.00533516239374876
0	5500	0.0030389362946152687
0	5500	0.0
0	5474	-0.004897590260952711
0	5522	0.009003826417028904
0	5500	-0.0041093844920396805
0	5534	0.006325581576675177
0	5524	-0.0018534993287175894
0	5532	0.0014777779579162598
0	5524	-0.0014730433467775583
0	5530	0.0011019958183169365
0	5530	0.0
0	5538	0.0014632897218689322
0	5516	-0.004018167033791542
0	5550	0.006202945951372385
0	5512	-0.006925796624273062
0	5548	0.006556740030646324
0	5536	-0.002184201031923294
0	5532	-0.0007277490803971887
0	5560	0.005092205014079809
0	5518	-0.0076346974819898605
0	5548	0.005450977478176355
0	5578	0.005447546020150185
0	5562	-0.0029028630815446377
0	5576	0.0025379483122378588
0	5570	-0.0010868646204471588
0	5574	0.0007239993428811431
0	5566	-0.0014471955364570022
0	5540	-0.004700947552919388
0	5550	0.001807337743230164
0	5552	0.0003613848239183426
0	5538	-0.0025286581367254257
0	5548	0.0018057712586596608
0	5542	-0.0010831498075276613
0	5612	0.012631579302251339
0	5686	0.013346158899366856
0	5674	-0.0021618246100842953
0	5626	-0.008640035055577755
0	5550	-0.013671687804162502
0	5500	-0.008993560448288918
0	5440	-0.01079382561147213
0	5454	0.002519919304177165
0	5462	0.0014406107366085052
0	5462	0.0
0	5508	0.008289980702102184
0	5458	-0.009013122878968716
0	5514	0.01009797491133213
0	5520	0.001082147005945444
0	5538	0.003246753243729472
0	5978	0.07936221361160278
0	6042	0.01151465717703104
1	4506	-0.2754860520362854
0	1472	-0.5475677847862244
0	2122	0.12028127163648605
0	4372	0.42538440227508545
0	6168	0.3421473503112793
0	6566	0.07553424686193466
0	6752	0.035079777240753174
0	6718	-0.0063649751245975494
0	6632	-0.015982160344719887
0	6566	-0.012183715589344501
0	6480	-0.015777306631207466
0	6410	-0.012768441811203957
0	6330	-0.014516421593725681
0	6238	-0.016614696010947227
0	6198	-0.007196660619229078
0	6080	-0.021165158599615097
0	6060	-0.0035786284133791924
0	6008	-0.009280410595238209
0	5996	-0.0021358139347285032
0	5950	-0.008163264952600002
0	5942	-0.0014154281234368682
0	5932	-0.001764207729138434
0	5916	-0.0028149522840976715
0	5880	-0.006316823419183493
0	5872	-0.0014006909914314747
0	5822	-0.008733217604458332
0	5804	-0.003138330765068531
0	5728	-0.013228895142674446
0	5686	-0.007302654441446066
0	5580	-0.01846175268292427
0	5464	-0.02025776170194149
0	5356	-0.01875607855618
0	5196	-0.02717575803399086
0	5090	-0.017695963382720947
0	4986	-0.017292983829975128
0	4928	-0.009707762859761715
0	4892	-0.006081080995500088
0	4904	0.0020484807901084423
0	4956	0.008969332091510296
0	4970	0.0024383163545280695
0	5042	0.012657188810408115
0	5088	0.008155257441103458
0	5152	0.01143578626215458
0	5230	0.014035845175385475
0	5248	0.00325874425470829
0	5292	0.008011750876903534
0	5328	0.006586570758372545
0	5346	0.0033080533612519503
0	5398	0.009595511481165886
0	5390	-0.0014816827606409788
0	5398	0.0014868229627609253
0	5412	0.002610738854855299
0	5394	-0.0033675492741167545
0	5454	0.011261824518442154
0	5438	-0.003011179156601429
0	5436	-0.00037742493441328406
0	5422	-0.0026484052650630474
0	5416	-0.0011377714108675718
0	5430	0.00266004609875381
0	5414	-0.0030449898913502693
0	5452	0.007239473983645439
0	5454	0.00038105397834442556
0	5458	0.0007616339717060328
0	5484	0.0049424017779529095
0	5466	-0.003413141705095768
0	5494	0.005293272435665131
0	5484	-0.0018837357638403773
0	5502	0.0033781668171286583
0	5512	0.001869764644652605
0	5488	-0.004471938591450453
0	5508	0.003714664140716195
0	5520	0.0022223868872970343
0	5510	-0.0018470631912350655
0	5540	0.0055290027521550655
0	5514	-0.004782693926244974
0	5532	0.0033057041000574827
0	5522	-0.0018338081426918507
0	5536	0.0025642903055995703
0	5554	0.0032931247260421515
0	5528	-0.004752214532345533
0	5562	0.006209213752299547
0	5564	0.00036488359910435975
0	5558	-0.0010936398757621646
0	5550	-0.0014567349571734667
0	5536	-0.0025478017050772905
0	5550	0.002546287840232253
0	5558	0.0014540167758241296
0	5558	0.0
0	5580	0.003991822712123394
0	5532	-0.008701537735760212
0	5542	0.00181152846198529
0	5530	-0.0021726535633206367
0	5538	0.0014477716758847237
0	5556	0.0032559148967266083
0	5544	-0.002169668208807707
0	5556	0.0021686486434191465
0	5538	-0.0032517581712454557
0	5568	0.005417835433036089
0	5552	-0.0028883647173643112
0	5536	-0.0028876697178930044
0	5544	0.0014434180920943618
0	5542	-0.0003607763792388141
0	5562	0.0036072866059839725
0	5544	-0.003245543222874403
0	5538	-0.0010818217415362597
0	5554	0.002884441986680031
0	5502	-0.009373197332024574
0	5570	0.012258730828762054
0	5668	0.017663385719060898
0	5670	0.0003602305368985981
0	5590	-0.01439694780856371
0	5558	-0.005757812410593033
0	5506	-0.009356780909001827
0	5418	-0.01583949290215969
0	5440	0.003963011782616377
0	5448	0.0014419264625757933
0	5456	0.001442810520529747
0	5478	0.003970163408666849
0	5454	-0.004333172924816608
0	5474	0.003613717621192336
0	5520	0.008314454928040504
0	5828	0.05567808076739311
0	6376	0.09888602793216705
1	4636	-0.3124065101146698
0	1104	-0.6376602053642273
0	2290	0.21999628841876984
0	4606	0.43845921754837036
0	6088	0.28222835063934326
0	6668	0.11009035259485245
0	6748	0.01507840771228075
0	6726	-0.004115226212888956
0	6662	-0.011883982457220554
0	6570	-0.016965612769126892
0	6502	-0.012462581507861614
0	6382	-0.02186482772231102
0	6348	-0.006163440179079771
0	6234	-0.020566975697875023
0	6168	-0.011855009943246841
0	6152	-0.0028636883944272995
0	6062	-0.016061866655945778
0	6054	-0.0014244000194594264
0	5994	-0.0106536615639925
0	5974	-0.00354208005592227
0	5970	-0.0007064641686156392
0	5922	-0.008450109511613846
0	5954	0.0056175170466303825
0	5890	-0.011201866902410984
0	5892	0.0003491742245387286
0	5824	-0.011843387968838215
0	5786	-0.0066041783429682255
0	5754	-0.005551379173994064
0	5644	-0.019057078287005424
0	5584	-0.010405827313661575
0	5420	-0.028573419898748398
0	5274	-0.025322016328573227
0	5156	-0.019983967766165733
0	5012	-0.023998932912945747
0	4958	-0.00897934753447771
0	4904	-0.009035943076014519
0	4878	-0.004393870942294598
0	4892	0.0023911187890917063
0	4868	-0.004142311401665211
0	4960	0.016044458374381065
0	5020	0.010562636889517307
0	5066	0.008169064298272133
0	5152	0.015392509289085865
0	5182	0.005408069118857384
0	5274	0.016690250486135483
0	5332	0.010579308494925499
0	5368	0.006599368993192911
0	5410	0.007732053752988577
0	5424	0.0025875770952552557
0	5444	0.0037095656152814627
0	5440	-0.0007443522335961461
0	5430	-0.0018670185236260295
0	5458	0.005243707448244095
0	5444	-0.0026299969758838415
0	5440	-0.000753532163798809
0	5408	-0.006045416463166475
0	5428	0.0037883094046264887
0	5420	-0.0015187566168606281
0	5416	-0.000760986702516675
0	5438	0.0041914875619113445
0	5442	0.0007627959130331874
0	5448	0.00114403385668993
0	5480	0.006094773765653372
0	5484	0.0007602827972732484
0	5526	0.007959168404340744
0	5474	-0.009818978607654572
0	5510	0.006773453205823898
0	5526	0.002998538315296173
0	5518	-0.0014933545608073473
0	5530	0.002231008606031537
0	5508	-0.0040757847018539906
0	5542	0.006280014757066965
0	5524	-0.0033149984665215015
0	5520	-0.0007349879015237093
0	5526	0.00110020418651402
0	5526	0.0
0	5540	0.0025601638481020927
0	5524	-0.002922837156802416
0	5542	0.0032859109342098236
0	5528	-0.0025538746267557144
0	5564	0.006563753820955753
0	5568	0.0007287567714229226
0	5560	-0.0014562930446118116
0	5592	0.005821568891406059
0	5574	-0.0032716961577534676
0	5592	0.003269042121246457
0	5566	-0.004716695751994848
0	5574	0.0014500810066238046
0	5580	0.001086549717001617
0	5548	-0.005789200775325298
0	5570	0.003977437037974596
0	5578	0.0014452259056270123
0	5700	0.02202245593070984
0	5676	-0.004326559137552977
0	5594	-0.014765375293791294
0	5550	-0.007919651456177235
0	5496	-0.009715141728520393
0	5440	-0.010075808502733707
0	5466	0.004680468235164881
0	5440	-0.004681929014623165
0	5470	0.005405145697295666
0	5466	-0.0007208505994640291
0	5468	0.0003605899109970778
0	5518	0.009017783217132092
0	5526	0.0014428626745939255
0	5912	0.0696181207895279
0	6662	0.13495519757270813
1	5042	-0.2895545959472656
0	1298	-0.6711201071739197
0	1956	0.12101668864488602
0	4178	0.4178105294704437
0	5970	0.3399089574813843
0	6562	0.11200666427612305
0	6762	0.03760246932506561
0	6742	-0.00373287545517087
0	6688	-0.010006053373217583
0	6634	-0.009938772767782211
0	6522	-0.020479563623666763
0	6450	-0.013089798390865326
0	6356	-0.016999831423163414
0	6292	-0.011518249288201332
0	6232	-0.010751788504421711
0	6154	-0.013922936283051968
0	6090	-0.011393171735107899
0	6034	-0.009944594465196133
0	5976	-0.010273002088069916
0	5970	-0.0010600581299513578
0	5942	-0.00493316724896431
0	5938	-0.0007026665844023228
0	5938	0.0
0	5932	-0.0010480472119525075
0	5930	-0.000348411820596084
0	5872	-0.010076792910695076
0	5834	-0.0065866257064044476
0	5774	-0.010380982421338558
0	5650	-0.02142338827252388
0	5562	-0.015226669609546661
0	5426	-0.023682378232479095
0	5310	-0.02015475183725357
0	5140	-0.028866399079561234
0	4992	-0.02468586526811123
0	4916	-0.012619413435459137
0	4846	-0.011691347695887089
0	4890	0.007419731933623552
0	4916	0.00443101255223155
0	4924	0.0013776792911812663
0	4970	0.0080026900395751
0	5010	0.007026666309684515
0	5084	0.013115450739860535
0	5114	0.00536033371463418
0	5220	0.0190809927880764
0	5274	0.009783435612916946
0	5296	0.0040090386755764484
0	5354	0.010624656453728676
0	5398	0.00809647049754858
0	5432	0.006280865520238876
0	5466	0.006301975809037685
0	5436	-0.005577935837209225
0	5460	0.004476387053728104
0	5448	-0.002244864823296666
0	5462	0.0026270358357578516
0	5450	-0.0022583843674510717
0	5414	-0.006795615889132023
0	5442	0.005300754681229591
0	5422	-0.0037956424057483673
0	5438	0.0030432906933128834
0	5460	0.004190157167613506
0	5458	-0.0003811701899394393
0	5464	0.0011432780884206295
0	5448	-0.003045762423425913
0	5494	0.008739487268030643
0	5484	-0.0018938676221296191
0	5482	-0.00037742021959275007
0	5510	0.005262827966362238
0	5480	-0.005616925656795502
0	5478	-0.00037314827204681933
0	5534	0.010412276722490788
0	5510	-0.004446859937161207
0	5528	0.0033248774707317352
0	5520	-0.0014736945740878582
0	5550	0.005512611474841833
0	5528	-0.004034426994621754
0	5530	0.0003661975497379899
0	5542	0.002194051630795002
0	5514	-0.005113594699651003
0	5540	0.00474498700350523
0	5544	0.0007295187097042799
0	5546	0.0003645865072030574
0	5570	0.004372115712612867
0	5536	-0.006189696025103331
0	5548	0.0021834326907992363
0	5530	-0.0032734416890889406
0	5532	0.00036353940959088504
0	5552	0.0036327969282865524
0	5540	-0.0021782272960990667
0	5510	-0.00544168334454298
0	5526	0.0029009683057665825
0	5514	-0.0021748587023466825
0	5518	0.0007247076719067991
0	5502	-0.002897885860875249
0	5516	0.00253482349216938
0	5542	0.004706904757767916
0	5514	-0.005067200865596533
0	5548	0.006151841953396797
0	5530	-0.0032561111729592085
0	5534	0.0007233622018247843
0	5568	0.006146503612399101
0	5538	-0.005422274582087994
0	5570	0.005782784428447485
0	5548	-0.003974658437073231
0	5574	0.0046965316869318485
0	5700	0.022756827995181084
0	5680	-0.003608458209782839
0	5638	-0.007570932619273663
0	5574	-0.011530008167028427
0	5496	-0.014047135598957539
0	5442	-0.009727509692311287
0	5424	-0.0032444903627038
0	5446	0.003968397155404091
0	5432	-0.00252722785808146
0	5452	0.0036125860642641783
0	5478	0.0046990783885121346
0	5474	-0.0007231616764329374
0	5544	0.012659753672778606
0	5676	0.0238738302141428
0	6586	0.16444990038871765
1	5102	-0.2664527893066406
0	2402	-0.48601943254470825
0	1348	-0.19333773851394653
0	3928	0.485637903213501
0	5772	0.3505614697933197
0	6466	0.13172213733196259
0	6684	0.04113621264696121
0	6702	0.0033717546612024307
0	6692	-0.0018597962334752083
0	6594	-0.018095649778842926
0	6530	-0.011740964837372303
0	6436	-0.017143690958619118
0	6352	-0.015236712992191315
0	6272	-0.01444286573678255
0	6174	-0.01761575974524021
0	6138	-0.0064479149878025055
0	6082	-0.010003930889070034
0	6016	-0.01176218967884779
0	5992	-0.004267577081918716
0	5942	-0.008868812583386898
0	5922	-0.0035381948109716177
0	5898	-0.004233849700540304
0	5848	-0.00879600364714861
0	5866	0.00315911415964365
0	5818	-0.008402968756854534
0	5824	0.0010481325443834066
0	5768	-0.00976290088146925
0	5740	-0.00487312488257885
0	5672	-0.011821289546787739
0	5576	-0.01668926700949669
0	5492	-0.014689081348478794
0	5362	-0.02268153987824917
0	5258	-0.01783815212547779
0	5152	-0.017783643677830696
0	5028	-0.02066207490861416
0	4984	-0.007362127769738436
0	4916	-0.011472662910819054
0	4934	0.0030673800501972437
0	4932	-0.0003442775341682136
0	4994	0.010781483724713326
0	5052	0.010180320590734482
0	5054	0.00035410764394328
0	5138	0.01499482337385416
0	5182	0.007911581546068192
0	5266	0.015203253366053104
0	5286	0.003639760660007596
0	5328	0.007683207746595144
0	5368	0.007351139094680548
0	5366	-0.00036902184365317225
0	5414	0.008890754543244839
0	5460	0.008548173122107983
0	5404	-0.010436338372528553
0	5440	0.006729726679623127
0	5434	-0.0011244799243286252
0	5422	-0.002255045808851719
0	5418	-0.0007535510812886059
0	5422	0.0007554772309958935
0	5456	0.00643557496368885
0	5422	-0.006447127554565668
0	5454	0.006077487953007221
0	5438	-0.003041092772036791
0	5466	0.005323733668774366
0	5506	0.00760032469406724
0	5484	-0.004173622466623783
0	5504	0.003786253510043025
0	5512	0.0015099657466635108
0	5506	-0.0011287247762084007
0	5552	0.008621659129858017
0	5504	-0.008961912244558334
0	5528	0.0044650607742369175
0	5518	-0.0018543013138696551
0	5526	0.0014791805297136307
0	5544	0.0033185025677084923
0	5500	-0.008091705851256847
0	5548	0.008810141123831272
0	5530	-0.003298112889751792
0	5530	0.0
0	5554	0.004385537467896938
0	5540	-0.002555335173383355
0	5546	0.0010939855128526688
0	5500	-0.008380499668419361
0	5536	0.006557058542966843
0	5514	-0.004003882873803377
0	5506	-0.00145530398003757
0	5536	0.005455008242279291
0	5496	-0.007268322166055441
0	5526	0.005448667798191309
0	5540	0.0025411115493625402
0	5528	-0.0021769891027361155
0	5546	0.0032633920200169086
0	5530	-0.0028991810977458954
0	5564	0.00615733815357089
0	5540	-0.004343786742538214
0	5542	0.00036190799437463284
0	5564	0.003979595378041267
0	5538	-0.00470145745202899
0	5548	0.001807969412766397
0	5542	-0.0010845072101801634
0	5544	0.0003615242021623999
0	5552	0.0014457482611760497
0	5516	-0.006504926830530167
0	5562	0.008311950601637363
0	5528	-0.006142284255474806
0	5564	0.006504221819341183
0	5540	-0.004334477242082357
0	5516	-0.004334685858339071
0	5632	0.020952748134732246
0	5674	0.007581683807075024
0	5652	-0.003968492615967989
0	5600	-0.009373760782182217
0	5542	-0.010451956652104855
0	5462	-0.014412855729460716
0	5434	-0.005046742502599955
0	5452	0.0032458945643156767
0	5442	-0.0018038603011518717
0	5452	0.0018048804486170411
0	5474	0.003971788100898266
0	5470	-0.0007223693537525833
0	5510	0.007226739078760147
0	5620	0.01987568661570549
0	6468	0.15315520763397217
0	5754	-0.12822969257831573
1	4170	-0.2841527462005615
0	1056	-0.5632325410842896
0	3600	0.47292691469192505
0	5620	0.3801422715187073
0	6446	0.15536440908908844
0	6786	0.06359340250492096
0	6770	-0.002969598863273859
0	6754	-0.0029472443275153637
0	6634	-0.021942388266324997
0	6580	-0.009807244874536991
0	6488	-0.016606297343969345
0	6366	-0.021894928067922592
0	6320	-0.00821604672819376
0	6208	-0.01991182006895542
0	6198	-0.0017705800710245967
0	6142	-0.009882236830890179
0	6062	-0.014078723266720772
0	6028	-0.005969101097434759
0	5982	-0.008055665530264378
0	5954	-0.004890887066721916
0	5938	-0.0027868091128766537
0	5922	-0.0027786782011389732
0	5944	0.003810315625742078
0	5892	-0.00898017454892397
0	5880	-0.0020671121310442686
0	5798	-0.01409241370856762
0	5738	-0.010292183607816696
0	5694	-0.007537774741649628
0	5576	-0.020206401124596596
0	5516	-0.010327022522687912
0	5386	-0.02240580879151821
0	5250	-0.02327730692923069
0	5152	-0.016381384804844856
0	5008	-0.02386423945426941
0	4968	-0.006651442032307386
0	4898	-0.011736170388758183
0	4884	-0.002372264862060547
0	4924	0.006850879173725843
0	4938	0.002423123689368367
0	4990	0.009089108556509018
0	5044	0.009526945650577545
0	5100	0.00996441300958395
0	5174	0.013266880065202713
0	5214	0.007220737636089325
0	5286	0.01307553518563509
0	5356	0.012782896868884563
0	5366	0.0018349072197452188
0	5424	0.010687961243093014
0	5424	0.0
0	5456	0.005939197726547718
0	5462	0.001117041101679206
0	5462	0.0
0	5464	0.0003745224967133254
0	5444	-0.003756480058655143
0	5424	-0.0037670456804335117
0	5416	-0.0015111446846276522
0	5416	0.0
0	5424	0.0015178730245679617
0	5402	-0.00418129051104188
0	5442	0.007610735949128866
0	5434	-0.001522862003184855
0	5434	0.0
0	5466	0.006082493811845779
0	5450	-0.0030352084431797266
0	5504	0.0102152768522501
0	5522	0.003393622348085046
0	5494	-0.005258347373455763
0	5502	0.0014966698363423347
0	5512	0.0018641181522980332
0	5500	-0.0022289918269962072
0	5552	0.009628559462726116
0	5532	-0.0036917170509696007
0	5530	-0.00036819305387325585
0	5536	0.0011021713726222515
0	5514	-0.004033342469483614
0	5544	0.005492359399795532
0	5534	-0.0018286885460838675
0	5518	-0.002922908402979374
0	5542	0.004381854087114334
0	5528	-0.0025542471557855606
0	5570	0.007659388240426779
0	5540	-0.005467401817440987
0	5548	0.0014572833897545934
0	5564	0.0029130808543413877
0	5546	-0.0032748309895396233
0	5566	0.003636011155322194
0	5554	-0.0021796254441142082
0	5578	0.004355611279606819
0	5568	-0.001813148963265121
0	5620	0.009418925270438194
0	5704	0.015198851004242897
0	5646	-0.010477383621037006
0	5598	-0.00865988340228796
0	5554	-0.00793192908167839
0	5434	-0.021619025617837906
0	5462	0.005046560429036617
0	5448	-0.002524190116673708
0	5484	0.0064925700426101685
0	5478	-0.0010822119656950235
0	5460	-0.003247299697250128
0	5476	0.0028871833346784115
0	5492	0.0028885037172585726
0	5540	0.0086675975471735
0	6062	0.09425444900989532
0	6532	0.08459728956222534
1	4902	-0.291609525680542
0	1130	-0.6774100661277771
0	1766	0.11731142550706863
0	4084	0.4376557767391205
0	5842	0.3349975347518921
0	6622	0.14833785593509674
0	6774	0.028715364634990692
0	6802	0.005248884670436382
0	6728	-0.013764197938144207
0	6630	-0.01809765212237835
0	6546	-0.015409450978040695
0	6412	-0.024435313418507576
0	6364	-0.008707535453140736
0	6290	-0.013360616751015186
0	6220	-0.012583741918206215
0	6174	-0.008239691145718098
0	6100	-0.013218062929809093
0	6088	-0.0021376910153776407
0	6044	-0.007815460674464703
0	6004	-0.007084410637617111
0	5988	-0.002824260387569666
0	5956	-0.005631092935800552
0	5956	0.0
0	5924	-0.005598908290266991
0	5918	-0.0010470716515555978
0	5884	-0.005917640402913094
0	5832	-0.009029136039316654
0	5798	-0.005892070941627026
0	5666	-0.022841056808829308
0	5562	-0.018037185072898865
0	5466	-0.016743602231144905
0	5328	-0.023990264162421227
0	5206	-0.020705105736851692
0	5030	-0.029299477115273476
0	4950	-0.01324839610606432
0	4886	-0.010651162825524807
0	4858	-0.004705197177827358
0	4888	0.005095974076539278
0	4870	-0.003091083839535713
0	4954	0.014580126851797104
0	5022	0.011918533593416214
0	5064	0.007427581120282412
0	5152	0.015687206760048866
0	5202	0.008977842517197132
0	5264	0.011205494403839111
0	5310	0.00836191326379776
0	5362	0.009502344764769077
0	5418	0.010279504582285881
0	5416	-0.00036863642162643373
0	5446	0.005550963804125786
0	5450	0.0007426845259033144
0	5428	-0.004098411649465561
0	5438	0.0018690424039959908
0	5418	-0.0037501873448491096
0	5454	0.006771754007786512
0	5436	-0.003395756473764777
0	5416	-0.0037837226409465075
0	5434	0.0034143072552978992
0	5412	-0.0041826688684523106
0	5456	0.008378824219107628
0	5424	-0.0060977935791015625
0	5456	0.006099420599639416
0	5462	0.001142712077125907
0	5440	-0.004183145705610514
0	5468	0.005310204345732927
0	5448	-0.0037806229665875435
0	5496	0.009041477926075459
0	5482	-0.002626575995236635
0	5498	0.002990691689774394
0	5492	-0.0011171380756422877
0	5512	0.0037114014849066734
0	5516	0.0007400372414849699
0	5498	-0.0033209105022251606
0	5536	0.006995925214141607
0	5530	-0.0011023603146895766
0	5520	-0.0018342789262533188
0	5540	0.003663853509351611
0	5524	-0.0029279005248099566
0	5554	0.005486265756189823
0	5564	0.0018272183369845152
0	5536	-0.00511253671720624
0	5566	0.005474851932376623
0	5536	-0.0054702600464224815
0	5560	0.004373602569103241
0	5550	-0.0018207639222964644
0	5550	0.0
0	5576	0.0047279600985348225
0	5532	-0.007993411272764206
0	5554	0.003994335420429707
0	5544	-0.0018140480387955904
0	5556	0.0021756996866315603
0	5554	-0.00036232758429832757
0	5530	-0.004345359746366739
0	5560	0.005429471377283335
0	5570	0.0018085144693031907
0	5538	-0.0057836901396512985
0	5598	0.010838542133569717
0	5696	0.01769208535552025
0	5692	-0.0007211971678771079
0	5610	-0.014767325483262539
0	5568	-0.0075583974830806255
0	5540	-0.005037239287048578
0	5448	-0.01654854789376259
0	5472	0.004318307153880596
0	5434	-0.00683994498103857
0	5484	0.009005115367472172
0	5460	-0.004323389381170273
0	5490	0.005406834185123444
0	5522	0.005768468137830496
0	5518	-0.0007211971678771079
0	5812	0.05302265286445618
0	6328	0.09290601313114166
1	4660	-0.29895687103271484
0	1022	-0.6554718613624573
0	2230	0.22374790906906128
0	4640	0.45572587847709656
0	6174	0.29174962639808655
0	6634	0.08715642988681793
0	6802	0.03161103278398514
0	6792	-0.001866995240561664
0	6708	-0.015561896376311779
0	6604	-0.0191310103982687
0	6518	-0.015718672424554825
0	6406	-0.02034834399819374
0	6336	-0.012652888894081116
0	6224	-0.020151617005467415
0	6166	-0.010392899625003338
0	6106	-0.010714923962950706
0	6052	-0.00961995217949152
0	6026	-0.00462194811552763
0	5966	-0.010639806278049946
0	5936	-0.0053074173629283905
0	5904	-0.005648055579513311
0	5894	-0.001760294777341187
0	5898	0.0007023787475191057
0	5844	-0.009456430561840534
0	5838	-0.0010485111270099878
0	5792	-0.008020924404263496
0	5766	-0.004525621887296438
0	5690	-0.013210039585828781
0	5598	-0.01597518101334572
0	5530	-0.011822386644780636
0	5408	-0.021309299394488335
0	5284	-0.021564718335866928
0	5182	-0.01731102168560028
0	5050	-0.022034520283341408
0	4968	-0.01365695521235466
0	4920	-0.008048199117183685
0	4906	-0.0023700962774455547
0	4930	0.0041069635190069675
0	4938	0.0013836841098964214
0	5008	0.012232059612870216
0	5072	0.011288539506494999
0	5096	0.004269500263035297
0	5166	0.012550200335681438
0	5224	0.01047196052968502
0	5292	0.012351809069514275
0	5308	0.002921769628301263
0	5374	0.012111129239201546
0	5410	0.006633581127971411
0	5418	0.001479727798141539
0	5452	0.00631016306579113
0	5460	0.0014892033068463206
0	5460	0.0
0	5468	0.0014973608776926994
0	5452	-0.0030027776956558228
0	5408	-0.008277937769889832
0	5398	-0.0018864364828914404
0	5406	0.0015128974337130785
0	5416	0.0018954231636598706
0	5400	-0.0030379362870007753
0	5430	0.005703277420252562
0	5446	0.003043676959350705
0	5468	0.0041840472258627415
0	5474	0.0011397743364796042
0	5480	0.0011376708280295134
0	5498	0.003403761889785528
0	5506	0.0015077460557222366
0	5484	-0.00413109315559268
0	5538	0.010103403590619564
0	5510	-0.0052190120331943035
0	5528	0.00334319774992764
0	5546	0.003332469379529357
0	5544	-0.00036919440026395023
0	5518	-0.004786333069205284
0	5558	0.007347718346863985
0	5522	-0.006599450018256903
0	5542	0.003661215538159013
0	5514	-0.005118393339216709
0	5540	0.004748743027448654
0	5544	0.0007299980497919023
0	5560	0.002917755860835314
0	5590	0.005467202980071306
0	5546	-0.008012237027287483
0	5564	0.003276023082435131
0	5538	-0.004729279316961765
0	5556	0.0032724100165069103
0	5524	-0.005812404677271843
0	5516	-0.0014519934775307775
0	5548	0.005804111249744892
0	5540	-0.0014498707605525851
0	5538	-0.00036216137232258916
0	5540	0.0003619254566729069
0	5506	-0.0061492458917200565
0	5544	0.006871112622320652
0	5528	-0.0028918797615915537
0	5514	-0.0025296632666140795
0	5524	0.0018067281926050782
0	5518	-0.0010839194292202592
0	5548	0.005418487824499607
0	5522	-0.004695740528404713
0	5562	0.0072236936539411545
0	5532	-0.005416661500930786
0	5584	0.009389671497046947
0	5704	0.021663255989551544
0	5638	-0.011901470832526684
0	5608	-0.005407158751040697
0	5530	-0.014051352627575397
0	5474	-0.010088878683745861
0	5450	-0.004324843641370535
0	5426	-0.004327183123677969
0	5412	-0.002525981515645981
0	5448	0.006501167546957731
0	5446	-0.0003614849701989442
0	5494	0.008680869825184345
0	5516	0.0039804112166166306
0	5568	0.009409493766725063
0	6272	0.1273808479309082
0	5860	-0.07421194761991501
1	4302	-0.28005799651145935
0	830	-0.6288032531738281
0	2728	0.35380083322525024
0	5200	0.4689871668815613
0	6500	0.24716708064079285
0	6778	0.05252484604716301
0	6830	0.009749025106430054
0	6752	-0.014505511149764061
0	6694	-0.01070400420576334
0	6586	-0.019789161160588264
0	6510	-0.013835455290973186
0	6426	-0.01520306896418333
0	6322	-0.018720747902989388
0	6278	-0.00788436271250248
0	6174	-0.018553096801042557
0	6130	-0.007821943610906601
0	6088	-0.007447600830346346
0	6022	-0.011672326363623142
0	6004	-0.0031756111420691013
0	5922	-0.0144264604896307
0	5930	0.001403771573677659
0	5920	-0.001749801798723638
0	5892	-0.004885368514806032
0	5886	-0.001043950323946774
0	5842	-0.007636237423866987
0	5816	-0.004502008203417063
0	5722	-0.01624629832804203
0	5672	-0.008631404489278793
0	5618	-0.009316341951489449
0	5488	-0.022512901574373245
0	5400	-0.015272297896444798
0	5266	-0.02310876175761223
0	5216	-0.0084082605317235
0	5076	-0.02321930043399334
0	4976	-0.016596591100096703
0	4928	-0.008034100756049156
0	4882	-0.007779644336551428
0	4892	0.0017100059194490314
0	4934	0.007258984725922346
0	4976	0.007333341054618359
0	5050	0.013042865321040154
0	5090	0.007111195474863052
0	5178	0.015769479796290398
0	5258	0.014434527605772018
0	5294	0.006535631138831377
0	5348	0.009855933487415314
0	5356	0.0014671181561425328
0	5362	0.0011052844347432256
0	5412	0.00924818404018879
0	5394	-0.0033415427897125483
0	5422	0.005214994307607412
0	5428	0.0011210342636331916
0	5424	-0.0007496533216908574
0	5450	0.004887034185230732
0	5422	-0.005277376621961594
0	5414	-0.0015118110459297895
0	5440	0.004925859626382589
0	5430	-0.001897941343486309
0	5454	0.0045620440505445
0	5460	0.0011416972847655416
0	5448	-0.002283800393342972
0	5476	0.005327245220541954
0	5476	0.0
0	5480	0.0007587733562104404
0	5494	0.0026489398442208767
0	5514	0.0037718769162893295
0	5508	-0.0011274098651483655
0	5480	-0.005240697879344225
0	5506	0.004848575219511986
0	5524	0.003344812896102667
0	5518	-0.001111165969632566
0	5534	0.0029545733705163
0	5540	0.0011049452004954219
0	5552	0.002204990480095148
0	5562	0.001834189286455512
0	5516	-0.00842346902936697
0	5530	0.002561038127169013
0	5544	0.0025583235546946526
0	5552	0.001460280385799706
0	5576	0.004377112258225679
0	5562	-0.0025504936929792166
0	5554	-0.0014561869902536273
0	5548	-0.0010913059813901782
0	5526	-0.003998449072241783
0	5546	0.003633280983194709
0	5542	-0.0007261110004037619
0	5524	-0.0032649703789502382
0	5540	0.0029007226694375277
0	5522	-0.0032611454371362925
0	5560	0.006881813984364271
0	5516	-0.00796360895037651
0	5530	0.002532836515456438
0	5554	0.004340591840445995
0	5524	-0.005423189606517553
0	5650	0.022771358489990234
0	5698	0.008666658774018288
0	5658	-0.007214226294308901
0	5618	-0.007207726594060659
0	5534	-0.01512368954718113
0	5476	-0.010440793819725513
0	5430	-0.008283015340566635
0	5438	0.001441285596229136
0	5458	0.003605292644351721
0	5458	0.0
0	5492	0.0061354860663414
0	5456	-0.006499133072793484
0	5520	0.011558188125491142
0	5554	0.006140657234936953
0	6018	0.08379685878753662
0	6742	0.13038623332977295
1	5008	-0.3101080060005188
0	940	-0.7299305200576782
0	1890	0.1752983033657074
0	4244	0.44436895847320557
0	5986	0.3315148651599884
0	6620	0.12031882256269455
0	6782	0.03053569421172142
0	6776	-0.0011220825836062431
0	6688	-0.016331378370523453
0	6632	-0.010318269953131676
0	6518	-0.02086765505373478
0	6404	-0.020740848034620285
0	6330	-0.013392372988164425
0	6232	-0.0176532045006752
0	6174	-0.010403587482869625
0	6134	-0.00715247867628932
0	6072	-0.011057606898248196
0	6062	-0.0017791062127798796
0	6012	-0.008872170001268387
0	5990	-0.003892748849466443
0	5980	-0.001764083281159401
0	5948	-0.0056268684566020966
0	5958	0.001753155724145472
0	5908	-0.008740240707993507
0	5898	-0.0017434764886274934
0	5846	-0.009044736623764038
0	5754	-0.015966122969985008
0	5708	-0.007972270250320435
0	5608	-0.017315616831183434
0	5508	-0.017356691882014275
0	5408	-0.017481498420238495
0	5258	-0.02616127021610737
0	5110	-0.02518034540116787
0	4992	-0.019716177135705948
0	4934	-0.00965079665184021
0	4880	-0.009037959389388561
0	4862	-0.003042184980586171
0	4902	0.006834336090832949
0	4918	0.002763225929811597
0	4984	0.011515644378960133
0	5044	0.010570080019533634
0	5114	0.012439431622624397
0	5206	0.016474857926368713
0	5240	0.00612966064363718
0	5290	0.009068265557289124
0	5344	0.009846348315477371
0	5344	0.0
0	5414	0.01288264524191618
0	5412	-0.00036954457755200565
0	5440	0.00519281392917037
0	5450	0.001860903576016426
0	5432	-0.003360674949362874
0	5462	0.005619170144200325
0	5426	-0.006763950455933809
0	5440	0.0026383898220956326
0	5426	-0.002646002685651183
0	5412	-0.0026530225295573473
0	5434	0.0041780611500144005
0	5418	-0.0030438697431236506
0	5448	0.005714140832424164
0	5464	0.0030487030744552612
0	5438	-0.004952380899339914
0	5468	0.00570776266977191
0	5482	0.002657588804140687
0	5488	0.0011354461312294006
0	5494	0.001131491968408227
0	5514	0.003757138503715396
0	5510	-0.0007483723456971347
0	5492	-0.003354954067617655
0	5544	0.009657648392021656
0	5536	-0.001480658887885511
0	5546	0.0018452227814123034
0	5526	-0.003680665511637926
0	5518	-0.0014693817356601357
0	5572	0.009901474229991436
0	5532	-0.007321805693209171
0	5572	0.007313416805118322
0	5542	-0.005477451253682375
0	5538	-0.0007297583506442606
0	5554	0.0029167982283979654
0	5546	-0.0014573895605280995
0	5570	0.00436962116509676
0	5572	0.00036383038968779147
0	5630	0.010544048622250557
0	5730	0.018156949430704117
0	5656	-0.013412600383162498
0	5630	-0.004705995786935091
0	5544	-0.015545540489256382
0	5468	-0.013728819787502289
0	5478	0.0018058798741549253
0	5448	-0.005416661500930786
0	5480	0.0057783289812505245
0	5484	0.00072210852522403
0	5478	-0.001083058537915349
0	5514	0.0064985076896846294
0	5492	-0.00397068914026022
0	5532	0.0072195217944681644
0	6004	0.08518113195896149
0	6448	0.07989060133695602
1	4678	-0.3166670501232147
0	748	-0.7067582607269287
0	2288	0.28513237833976746
0	4732	0.46179428696632385
0	6224	0.2833305895328522
0	6720	0.09377126395702362
0	6820	0.018769707530736923
0	6798	-0.0040963259525597095
0	6744	-0.009978687390685081
0	6626	-0.021645020693540573
0	6558	-0.012390971183776855
0	6442	-0.02100941725075245
0	6390	-0.009367343969643116
0	6318	-0.012906618416309357
0	6210	-0.019274013116955757
0	6174	-0.006402580067515373
0	6114	-0.010642953217029572
0	6082	-0.0056609115563333035
0	6036	-0.008115928620100021
0	5986	-0.0087962094694376
0	5998	0.002104697050526738
0	5952	-0.008043551817536354
0	5950	-0.00034869532100856304
0	5928	-0.0038251997902989388
0	5914	-0.002427970292046666
0	5888	-0.004497751127928495
0	5794	-0.016226107254624367
0	5738	-0.009649847634136677
0	5648	-0.015490354970097542
0	5548	-0.017246730625629425
0	5430	-0.020456988364458084
0	5262	-0.02899918332695961
0	5110	-0.02557315304875374
0	5004	-0.01755606383085251
0	4932	-0.011906992644071579
0	4898	-0.005663080140948296
0	4850	-0.008076637983322144
0	4886	0.0061251576989889145
0	4912	0.004472220782190561
0	4942	0.005215032957494259
0	5040	0.017203645780682564
0	5066	0.004605138674378395
0	5166	0.01785714365541935
0	5192	0.0046769315376877785
0	5258	0.011952913366258144
0	5344	0.01566503569483757
0	5368	0.00439378060400486
0	5410	0.0077242800034582615
0	5412	0.00036934440140612423
0	5448	0.006673834752291441
0	5462	0.0026040375232696533
0	5448	-0.0026127202436327934
0	5464	0.0029953571502119303
0	5444	-0.0037555864546447992
0	5436	-0.0015067994827404618
0	5424	-0.002267002360895276
0	5422	-0.0003789409820456058
0	5414	-0.0015193334547802806
0	5396	-0.0034255266655236483
0	5430	0.006480799056589603
0	5432	0.0003815094823949039
0	5444	0.0022890279069542885
0	5458	0.0026674456894397736
0	5450	-0.0015208931872621179
0	5466	0.003033213783055544
0	5466	0.0
0	5500	0.006401004269719124
0	5494	-0.0011249999515712261
0	5490	-0.0007471607532352209
0	5524	0.006328092887997627
0	5512	-0.002225409261882305
0	5548	0.006656804587692022
0	5512	-0.006637086160480976
0	5516	0.0007358893053606153
0	5550	0.00624265568330884
0	5516	-0.006231519393622875
0	5546	0.0054926276206970215
0	5550	0.0007315556867979467
0	5540	-0.00182732951361686
0	5586	0.008399167098104954
0	5550	-0.006567745003849268
0	5556	0.0010940387146547437
0	5562	0.0010933210141956806
0	5586	0.004370682407170534
0	5598	0.002183459000661969
0	5566	-0.005816842429339886
0	5586	0.003632401116192341
0	5560	-0.0047174375504255295
0	5602	0.007613752968609333
0	5662	0.010863266885280609
0	5698	0.006508847698569298
0	5654	-0.007942525669932365
0	5592	-0.011177616193890572
0	5564	-0.005043894052505493
0	5452	-0.02016177400946617
0	5446	-0.0010801857570186257
0	5440	-0.001080315443687141
0	5432	-0.0014409396098926663
0	5466	0.006126273423433304
0	5470	0.000720841926522553
0	5468	-0.0003605379315558821
0	5526	0.010458365082740784
0	5568	0.007574299816042185
0	6544	0.17595309019088745
1	5544	-0.17917293310165405
0	2260	-0.5884250402450562
0	1006	-0.22914712131023407
0	3344	0.43938007950782776
0	5700	0.4489671289920807
0	6502	0.15267661213874817
0	6756	0.048074495047330856
0	6796	0.007513618562370539
0	6766	-0.005591798573732376
0	6638	-0.023681191727519035
0	6586	-0.009558471851050854
0	6458	-0.023386968299746513
0	6398	-0.010903407819569111
0	6312	-0.015551725402474403
0	6216	-0.017281727865338326
0	6208	-0.0014348574914038181
0	6116	-0.016447173431515694
0	6082	-0.006063200067728758
0	6038	-0.007826581597328186
0	5982	-0.009934832341969013
0	5968	-0.0024775839410722256
0	5944	-0.004234397318214178
0	5900	-0.007740391883999109
0	5908	0.0014035580679774284
0	5862	-0.008048055693507195
0	5860	-0.0003491091774776578
0	5806	-0.009404607117176056
0	5744	-0.010776735842227936
0	5696	-0.008332754485309124
0	5536	-0.027755292132496834
0	5484	-0.009073354303836823
0	5354	-0.022691303864121437
0	5210	-0.02469051070511341
0	5100	-0.018418261781334877
0	4976	-0.020560892298817635
0	4942	-0.005660314578562975
0	4898	-0.00738907977938652
0	4904	0.0010181916877627373
0	4928	0.0041168262250721455
0	4968	0.006934251636266708
0	5036	0.011903095059096813
0	5088	0.00918543990701437
0	5140	0.009260138496756554
0	5200	0.010765164159238338
0	5234	0.0061411005444824696
0	5328	0.017079316079616547
0	5330	0.00036533683305606246
0	5376	0.008443155325949192
0	5416	0.007373725064098835
0	5402	-0.0025907056406140327
0	5442	0.007428592536598444
0	5456	0.0026085011195391417
0	5446	-0.0018688795389607549
0	5462	0.002998688258230686
0	5442	-0.003758833510801196
0	5462	0.0037687497679144144
0	5420	-0.00793420895934105
0	5432	0.002272440353408456
0	5438	0.0011384623358026147
0	5418	-0.003801077138632536
0	5472	0.010270585305988789
0	5450	-0.004184630699455738
0	5466	0.0030415167566388845
0	5480	0.002657016972079873
0	5478	-0.0003786635643336922
0	5508	0.005662015173584223
0	5490	-0.003385155461728573
0	5502	0.002248425967991352
0	5496	-0.0011200298322364688
0	5492	-0.0007440568879246712
0	5540	0.008899766951799393
0	5520	-0.003696720814332366
0	5526	0.0011060723336413503
0	5538	0.0022069099359214306
0	5520	-0.0033035201486200094
0	5556	0.0065955002792179585
0	5534	-0.004024979192763567
0	5550	0.0029236203990876675
0	5550	0.0
0	5536	-0.002553377766162157
0	5552	0.002915770746767521
0	5512	-0.007284558843821287
0	5540	0.005097458604723215
0	5552	0.002183379605412483
0	5544	-0.0014547922182828188
0	5536	-0.001453893375582993
0	5510	-0.004723036661744118
0	5516	0.001089337863959372
0	5534	0.003266352927312255
0	5544	0.001813587499782443
0	5604	0.010873242281377316
0	5688	0.015210410580039024
0	5694	0.0010848994133993983
0	5622	-0.01300092600286007
0	5554	-0.012268167920410633
0	5522	-0.005770617630332708
0	5440	-0.014785964973270893
0	5450	0.0018037083791568875
0	5474	0.0043302541598677635
0	5454	-0.003609022591263056
0	5470	0.0028878781013190746
0	5460	-0.0018056841799989343
0	5494	0.006141544319689274
0	5514	0.0036133695393800735
0	5728	0.038668639957904816
0	6732	0.1811903715133667
1	5432	-0.23296098411083221
0	970	-0.8000813126564026
0	1698	0.1342116892337799
0	4162	0.4652685225009918
0	6174	0.3832332193851471
0	6700	0.09979510307312012
0	6812	0.021090690046548843
0	6820	0.0014945449074730277
0	6748	-0.013345524668693542
0	6634	-0.02097438834607601
0	6554	-0.014620417729020119
0	6446	-0.019612828269600868
0	6364	-0.014807858504354954
0	6296	-0.012218642048537731
0	6234	-0.01109057292342186
0	6174	-0.01069264579564333
0	6084	-0.015992797911167145
0	6068	-0.0028366113547235727
0	6016	-0.00919475220143795
0	5988	-0.004937575198709965
0	5964	-0.004220645874738693
0	5938	-0.004558364860713482
0	5926	-0.00209787767380476
0	5912	-0.00244109402410686
0	5872	-0.006956038065254688
0	5852	-0.003469933057203889
0	5764	-0.015233171172440052
0	5704	-0.010370097123086452
0	5618	-0.014847553335130215
0	5534	-0.014511448331177235
0	5436	-0.01704762876033783
0	5298	-0.024005288258194923
0	5204	-0.0159511286765337
0	5036	-0.02795403078198433
0	4968	-0.011260142549872398
0	4890	-0.013002600520849228
0	4846	-0.007409319747239351
0	4884	0.0064703612588346004
0	4906	0.0037876178976148367
0	4966	0.010440229438245296
0	5020	0.009487999603152275
0	5104	0.014892913401126862
0	5198	0.016799114644527435
0	5226	0.005038992501795292
0	5272	0.008331824094057083
0	5314	0.007651760242879391
0	5354	0.007325649727135897
0	5400	0.008462208323180676
0	5380	-0.0036943538580089808
0	5428	0.008901306428015232
0	5406	-0.004093937575817108
0	5412	0.001120406319387257
0	5448	0.0067445202730596066
0	5422	-0.004885626025497913
0	5442	0.00376974418759346
0	5418	-0.004535946995019913
0	5422	0.0007580638630315661
0	5426	0.0007597052026540041
0	5402	-0.004566268064081669
0	5444	0.008001930080354214
0	5434	-0.0019063111394643784
0	5462	0.005337739363312721
0	5466	0.0007617403171025217
0	5444	-0.00418261531740427
0	5488	0.008343657478690147
0	5474	-0.0026461028028279543
0	5484	0.0018831446068361402
0	5514	0.005626899190247059
0	5486	-0.005231168121099472
0	5536	0.009307751432061195
0	5516	-0.0037099786568433046
0	5530	0.002589044626802206
0	5522	-0.0014755791053175926
0	5538	0.002945291344076395
0	5552	0.0025722056161612272
0	5546	-0.0011004866100847721
0	5562	0.00293047446757555
0	5518	-0.008048584684729576
0	5614	0.01754792220890522
0	5696	0.014967509545385838
0	5646	-0.009111672639846802
0	5630	-0.002911490621045232
0	5528	-0.018536241725087166
0	5504	-0.004359356127679348
0	5432	-0.013071578927338123
0	5444	0.00217872834764421
0	5466	0.003993706777691841
0	5454	-0.0021778056398034096
0	5484	0.005443592090159655
0	5486	0.00036272627767175436
0	5514	0.005076878238469362
0	5554	0.0072491783648729324
0	5664	0.019924167543649673
0	6594	0.16824865341186523
0	6052	-0.09737926721572876
1	4460	-0.28506624698638916
0	804	-0.6586359143257141
0	3184	0.4411601126194
0	5414	0.4193936586380005
0	6508	0.2058403044939041
0	6778	0.05049371346831322
0	6824	0.008535483852028847
0	6724	-0.018408071249723434
0	6636	-0.016080498695373535
0	6566	-0.012706326320767403
0	6464	-0.01840203069150448
0	6396	-0.012200664728879929
0	6306	-0.01606779359281063
0	6204	-0.018125170841813087
0	6174	-0.0053123668767511845
0	6100	-0.0130669716745615
0	6082	-0.0031699815299361944
0	6056	-0.004566744435578585
0	5990	-0.011556780897080898
0	6024	0.005936652421951294
0	5980	-0.007656346075236797
0	5976	-0.0006938742590136826
0	5946	-0.005188755225390196
0	5918	-0.00482914038002491
0	5900	-0.003096720902249217
0	5842	-0.00995468907058239
0	5784	-0.009936043992638588
0	5652	-0.022583404555916786
0	5580	-0.012319063767790794
0	5428	-0.02615818940103054
0	5298	-0.022452503442764282
0	5154	-0.024751057848334312
0	4994	-0.02683243341743946
0	4876	-0.019590698182582855
0	4862	-0.002331261057406664
0	4826	-0.00604994548484683
0	4856	0.005097359884530306
0	4874	0.0030928899068385363
0	4934	0.01042004395276308
0	5018	0.014733223244547844
0	5058	0.007079896982759237
0	5160	0.01820475049316883
0	5220	0.010788003914058208
0	5278	0.010496724396944046
0	5352	0.013467605225741863
0	5388	0.0065846433863043785
0	5398	0.001837042160332203
0	5430	0.005903260316699743
0	5408	-0.00407417444512248
0	5464	0.010408018715679646
0	5450	-0.002611063653603196
0	5458	0.0014969686744734645
0	5466	0.001501820981502533
0	5426	-0.007531727198511362
0	5436	0.0018887643236666918
0	5434	-0.0003788596368394792
0	5428	-0.0011395146138966084
0	5458	0.005710442550480366
0	5446	-0.002286992035806179
0	5486	0.007629801984876394
0	5466	-0.0038134946953505278
0	5482	0.0030475417152047157
0	5496	0.0026610572822391987
0	5480	-0.003031566273421049
0	5508	0.0052850800566375256
0	5506	-0.0003759775427170098
0	5478	-0.005241351667791605
0	5530	0.00969630666077137
0	5524	-0.0011142613366246223
0	5556	0.005921101663261652
0	5534	-0.0040572937577962875
0	5534	0.0
0	5554	0.0036692761350423098
0	5544	-0.0018308983417227864
0	5566	0.004021447617560625
0	5544	-0.0040162112563848495
0	5642	0.017873426899313927
0	5704	0.011290929280221462
0	5620	-0.015271986834704876
0	5572	-0.00871565192937851
0	5524	-0.008709958754479885
0	5462	-0.01124532986432314
0	5448	-0.0025392065290361643
0	5426	-0.00399061618372798
0	5470	0.00798123236745596
0	5476	0.0010881260968744755
0	5524	0.008702798746526241
0	5522	-0.0003624063974712044
0	5520	-0.0003622663498390466
0	5568	0.008690509013831615
0	5898	0.05971769988536835
0	6648	0.13536928594112396
1	5048	-0.28677603602409363
0	1334	-0.6674653887748718
0	2288	0.17581580579280853
0	4776	0.4677746891975403
0	6236	0.27575957775115967
0	6750	0.09662138670682907
0	6818	0.012685621157288551
0	6790	-0.00518179452046752
0	6706	-0.015427942387759686
0	6622	-0.015318031422793865
0	6574	-0.008695651777088642
0	6458	-0.020885847508907318
0	6378	-0.014325450174510479
0	6314	-0.011405082419514656
0	6210	-0.018448874354362488
0	6142	-0.012022347189486027
0	6076	-0.011638706550002098
0	6056	-0.0035174526274204254
0	6010	-0.00806725025177002
0	5958	-0.009093664586544037
0	5960	0.00034874799894168973
0	5942	-0.0031294189393520355
0	5912	-0.00520014762878418
0	5924	0.0020747606176882982
0	5870	-0.009312378242611885
0	5858	-0.002065309789031744
0	5780	-0.013398684561252594
0	5706	-0.012692676857113838
0	5622	-0.0143965445458889
0	5498	-0.021285604685544968
0	5410	-0.015205970965325832
0	5260	-0.025865338742733
0	5102	-0.026643583551049232
0	4994	-0.017928486689925194
0	4918	-0.012601139955222607
0	4908	-0.001670211204327643
0	4884	-0.004050040617585182
0	4896	0.002047292422503233
0	4950	0.00931312795728445
0	4998	0.008362757973372936
0	5076	0.013718868605792522
0	5098	0.003903708653524518
0	5188	0.016099218279123306
0	5240	0.00936824455857277
0	5276	0.006527809426188469
0	5316	0.007294300477951765
0	5336	0.0036655545700341463
0	5392	0.010310164652764797
0	5384	-0.0014789070701226592
0	5434	0.009278963319957256
0	5428	-0.0011170965153723955
0	5426	-0.00037359900306910276
0	5450	0.004497638903558254
0	5428	-0.004134768154472113
0	5424	-0.0007541193626821041
0	5442	0.003403075272217393
0	5420	-0.004170246887952089
0	5456	0.0068395985290408134
0	5434	-0.004186382982879877
0	5474	0.00762069271877408
0	5454	-0.003810927039012313
0	5442	-0.0022859175223857164
0	5464	0.004186010919511318
0	5452	-0.0022780485451221466
0	5494	0.007950128987431526
0	5476	-0.003394859842956066
0	5468	-0.0015034578973427415
0	5514	0.008613372221589088
0	5508	-0.0011191663797944784
0	5536	0.00520471902564168
0	5532	-0.0007410609978251159
0	5514	-0.003325409721583128
0	5554	0.007370916660875082
0	5538	-0.0029417534824460745
0	5558	0.003670488018542528
0	5554	-0.0007328334031626582
0	5524	-0.005488273221999407
0	5552	0.005116522777825594
0	5554	0.00036511008511297405
0	5550	-0.000729465507902205
0	5528	-0.004009233321994543
0	5520	-0.001457017962820828
0	5580	0.010921402834355831
0	5526	-0.009821515530347824
0	5622	0.017450103536248207
0	5714	0.016702977940440178
0	5656	-0.010512832552194595
0	5628	-0.00506793474778533
0	5542	-0.01554966252297163
0	5490	-0.009396005421876907
0	5440	-0.009033750742673874
0	5438	-0.0003613804583437741
0	5450	0.0021683350205421448
0	5440	-0.001807098276913166
0	5490	0.009036144241690636
0	5474	-0.0028916357550770044
0	5484	0.0018072942038998008
0	5506	0.0039756642654538155
0	5572	0.011927567422389984
0	6374	0.14488215744495392
0	5938	-0.0783684030175209
1	4454	-0.26609286665916443
0	830	-0.6539549231529236
0	2642	0.33654022216796875
0	5158	0.4758242666721344
0	6366	0.2290336787700653
0	6700	0.06300222873687744
0	6800	0.018724488094449043
0	6732	-0.012634238228201866
0	6670	-0.011436019092798233
0	6590	-0.014655236154794693
0	6518	-0.013104728423058987
0	6426	-0.016644151881337166
0	6348	-0.014039719477295876
0	6268	-0.014329042285680771
0	6174	-0.016771936789155006
0	6116	-0.010320407338440418
0	6110	-0.0010647233575582504
0	6044	-0.011678659357130527
0	6000	-0.007762787863612175
0	5984	-0.0028143906965851784
0	5958	-0.004558844026178122
0	5948	-0.0017480887472629547
0	5894	-0.009412365965545177
0	5888	-0.001043067080900073
0	5850	-0.006590890698134899
0	5786	-0.011076368391513824
0	5778	-0.0013821382308378816
0	5694	-0.014489753171801567
0	5660	-0.005860789213329554
0	5546	-0.019731830805540085
0	5406	-0.02428700402379036
0	5256	-0.02587932161986828
0	5130	-0.02119903638958931
0	5010	-0.01991172507405281
0	4938	-0.01195682305842638
0	4882	-0.009373849257826805
0	4880	-0.0003382110735401511
0	4918	0.006496318615972996
0	4960	0.0072551388293504715
0	5024	0.011165386997163296
0	5072	0.008451001718640327
0	5162	0.015981247648596764
0	5202	0.007156317587941885
0	5270	0.012249456718564034
0	5320	0.009061253629624844
0	5322	0.0003643296950031072
0	5368	0.008420178666710854
0	5386	0.00330983754247427
0	5416	0.005538734141737223
0	5416	0.0
0	5392	-0.004462625365704298
0	5434	0.007837087847292423
0	5400	-0.0063646575435996056
0	5434	0.006384337320923805
0	5406	-0.005272672511637211
0	5410	0.0007553440518677235
0	5414	0.0007571359747089446
0	5406	-0.001517757773399353
0	5440	0.0064622401259839535
0	5426	-0.002664636354893446
0	5452	0.004952380899339914
0	5480	0.005331776104867458
0	5450	-0.005704506766051054
0	5498	0.00910873617976904
0	5502	0.0007567254360765219
0	5490	-0.0022621306125074625
0	5508	0.0033802816178649664
0	5502	-0.0011223484762012959
0	5532	0.005591381806880236
0	5524	-0.0014857553178444505
0	5508	-0.0029623412992805243
0	5532	0.004431587643921375
0	5502	-0.005526897497475147
0	5548	0.008458992466330528
0	5524	-0.00440587941557169
0	5552	0.005133783910423517
0	5552	0.0
0	5528	-0.004389280453324318
0	5562	0.006212769076228142
0	5524	-0.006937513593584299
0	5534	0.0018244623206555843
0	5536	0.00036457765963859856
0	5532	-0.0007287036278285086
0	5558	0.0047327796928584576
0	5524	-0.006184366997331381
0	5554	0.005452893208712339
0	5570	0.002905674511566758
0	5534	-0.006531599909067154
0	5610	0.013778267428278923
0	5674	0.011590843088924885
0	5692	0.003255051327869296
0	5598	-0.01697404496371746
0	5564	-0.006135190837085247
0	5516	-0.00865551084280014
0	5422	-0.01694854162633419
0	5456	0.0061332727782428265
0	5434	-0.0039693997241556644
0	5482	0.00866436492651701
0	5456	-0.004693761933594942
0	5488	0.005779581144452095
0	5502	0.0025291149504482746
0	5510	0.0014452607138082385
0	5584	0.013370432890951633
0	6302	0.1296653002500534
0	6268	-0.006112396251410246
1	4524	-0.31213831901550293
0	770	-0.6760309934616089
0	2834	0.38267576694488525
0	5038	0.4155511260032654
0	6304	0.2394854575395584
0	6790	0.09148521721363068
0	6810	0.003735385136678815
0	6744	-0.01222977228462696
0	6668	-0.013978124596178532
0	6592	-0.013883644714951515
0	6452	-0.025409886613488197
0	6382	-0.012636290863156319
0	6300	-0.014730539172887802
0	6232	-0.012159793637692928
0	6174	-0.010333278216421604
0	6108	-0.011723745614290237
0	6094	-0.002480744617059827
0	6042	-0.009187279269099236
0	6040	-0.0003523649647831917
0	5982	-0.010187234729528427
0	5930	-0.009103534743189812
0	5930	0.0
0	5894	-0.006266972981393337
0	5908	0.0024313435424119234
0	5850	-0.010046420618891716
0	5760	-0.0155567592009902
0	5746	-0.0024163483176380396
0	5640	-0.018270401284098625
0	5570	-0.012061478570103645
0	5420	-0.02595514804124832
0	5286	-0.023300565779209137
0	5152	-0.02319810725748539
0	4972	-0.03039308451116085
0	4904	-0.01134530920535326
0	4856	-0.00801442563533783
0	4828	-0.0047130645252764225
0	4874	0.007829076610505581
0	4886	0.0020650490187108517
0	4952	0.011480123735964298
0	5006	0.009487221017479897
0	5086	0.014186912216246128
0	5160	0.013229720294475555
0	5206	0.008284208364784718
0	5290	0.01522769033908844
0	5310	0.0036463967990130186
0	5354	0.00806441716849804
0	5398	0.00810173898935318
0	5420	0.004068247973918915
0	5426	0.0011137924157083035
0	5440	0.002608760492876172
0	5456	0.0029915114864706993
0	5444	-0.0022502813953906298
0	5458	0.0026333278510719538
0	5428	-0.005658313632011414
0	5390	-0.007188891526311636
0	5410	0.003794634249061346
0	5414	0.0007606105646118522
0	5422	0.0015244289534166455
0	5446	0.004579628352075815
0	5418	-0.0053471168503165245
0	5478	0.011458254419267178
0	5472	-0.001144426641985774
0	5492	0.00380700989626348
0	5474	-0.00341504137031734
0	5488	0.002646602923050523
0	5504	0.0030126909259706736
0	5490	-0.002624967135488987
0	5506	0.002988457214087248
0	5518	0.0022327243350446224
0	5532	0.0025957331527024508
0	5534	0.0003696174535434693
0	5538	0.0007372003747150302
0	5542	0.0007354924455285072
0	5538	-0.0007339808507822454
0	5548	0.0018321729730814695
0	5582	0.006220346782356501
0	5544	-0.006942499428987503
0	5566	0.004015771206468344
0	5558	-0.0014589843340218067
0	5570	0.0021867218893021345
0	5694	0.022578295320272446
0	5682	-0.002181844785809517
0	5680	-0.000363116996595636
0	5580	-0.01813148893415928
0	5538	-0.007608235813677311
0	5466	-0.013031044974923134
0	5440	-0.004704066086560488
0	5460	0.0036179448943585157
0	5462	0.00036171163083054125
0	5478	0.002893413882702589
0	5502	0.0043385517783463
0	5512	0.0018074684776365757
0	5536	0.004336879123002291
0	5546	0.0018065542681142688
0	6060	0.09281664341688156
0	6614	0.09969647228717804
1	4578	-0.3639700710773468
0	826	-0.6743996143341064
0	2120	0.2392987459897995
0	4588	0.4661705195903778
0	6232	0.3123852014541626
0	6700	0.08853575587272644
0	6836	0.025541184470057487
0	6796	-0.007451749872416258
0	6702	-0.017375873401761055
0	6618	-0.015417748130857944
0	6524	-0.017144525423645973
0	6438	-0.015592515468597412
0	6358	-0.014428626745939255
0	6266	-0.01651349663734436
0	6222	-0.00786500796675682
0	6150	-0.01282965112477541
0	6128	-0.0039093042723834515
0	6084	-0.007797915954142809
0	6012	-0.012722346000373363
0	6016	0.0007048292318359017
0	5992	-0.0042153578251600266
0	5990	-0.00035014821332879364
0	5958	-0.00558509724214673
0	5930	-0.004872898571193218
0	5914	-0.002777231391519308
0	5858	-0.009697193279862404
0	5842	-0.0027651044074445963
0	5756	-0.014836283400654793
0	5700	-0.009649182669818401
0	5588	-0.019338352605700493
0	5438	-0.026053426787257195
0	5334	-0.017974212765693665
0	5156	-0.029984837397933006
0	5048	-0.017888100817799568
0	4938	-0.018173206597566605
0	4864	-0.0123133584856987
0	4846	-0.0030259559862315655
0	4838	-0.0013600352685898542
0	4888	0.008595595136284828
0	4922	0.005906400736421347
0	4992	0.012280846014618874
0	5040	0.008497280068695545
0	5100	0.01070995070040226
0	5206	0.01906360499560833
0	5226	0.003619909519329667
0	5274	0.008740304037928581
0	5322	0.008787024766206741
0	5396	0.013613617978990078
0	5418	0.004064439795911312
0	5412	-0.0011125532910227776
0	5428	0.0029779260512441397
0	5452	0.004482573829591274
0	5458	0.0011244097258895636
0	5458	0.0
0	5428	-0.005656392779201269
0	5428	0.0
0	5442	0.0026549343019723892
0	5426	-0.0030419020913541317
0	5440	0.0026672424282878637
0	5430	-0.0019083240767940879
0	5454	0.004584585782140493
0	5464	0.001910049351863563
0	5460	-0.0007633879431523383
0	5490	0.0057143582962453365
0	5482	-0.0015195644227787852
0	5504	0.004164458252489567
0	5496	-0.001508257701061666
0	5516	0.0037553044967353344
0	5548	0.005983097944408655
0	5534	-0.0026068822480738163
0	5560	0.004823031835258007
0	5542	-0.0033273359294980764
0	5528	-0.0025799477007240057
0	5538	0.0018379874527454376
0	5538	0.0
0	5542	0.0007323056343011558
0	5526	-0.0029244397301226854
0	5560	0.0062067206017673016
0	5548	-0.0021884231828153133
0	5570	0.004008940886706114
0	5560	-0.0018204988446086645
0	5532	-0.0050933170132339
0	5570	0.006909006740897894
0	5554	-0.002907082438468933
0	5560	0.0010895223822444677
0	5544	-0.0029030737932771444
0	5554	0.001813148963265121
0	5572	0.003261460456997156
0	5652	0.014482608996331692
0	5690	0.006870449986308813
0	5660	-0.005415553227066994
0	5588	-0.012981236912310123
0	5594	0.0010809642262756824
0	5518	-0.013681203126907349
0	5458	-0.010799136012792587
0	5440	-0.0032402072101831436
0	5448	0.0014406453119590878
0	5486	0.006845037918537855
0	5432	-0.009728911332786083
0	5480	0.008653949946165085
0	5474	-0.0010820949682965875
0	5480	0.0010826546931639314
0	5650	0.03068665973842144
0	6554	0.16306112706661224
1	5568	-0.17677220702171326
0	2136	-0.6151860952377319
0	1180	-0.1749228537082672
0	3450	0.42665964365005493
0	5656	0.4201851189136505
0	6478	0.156462162733078
0	6756	0.05261232331395149
0	6734	-0.004132386762648821
0	6712	-0.0041015190072357655
0	6620	-0.01703093945980072
0	6536	-0.015448370017111301
0	6484	-0.009506398811936378
0	6368	-0.021085796877741814
0	6322	-0.008320570923388004
0	6248	-0.013325009495019913
0	6174	-0.013277511112391949
0	6154	-0.0035781587939709425
0	6060	-0.016767948865890503
0	6018	-0.007471094373613596
0	5976	-0.007452358491718769
0	5934	-0.007432224694639444
0	5950	0.00282339658588171
0	5898	-0.009148594923317432
0	5896	-0.00035094289341941476
0	5868	-0.004901445936411619
0	5836	-0.005587437655776739
0	5774	-0.010803275741636753
0	5720	-0.009392937645316124
0	5662	-0.010074691846966743
0	5574	-0.015284677036106586
0	5452	-0.021311035379767418
0	5348	-0.018179062753915787
0	5182	-0.02848351188004017
0	5072	-0.018452247604727745
0	4994	-0.012966718524694443
0	4936	-0.009677419438958168
0	4912	-0.004039089661091566
0	4904	-0.0013604362029582262
0	4952	0.008248178288340569
0	5020	0.011803916655480862
0	5060	0.007008363027125597
0	5098	0.006715837866067886
0	5142	0.007840248756110668
0	5230	0.015795519575476646
0	5258	0.005058900453150272
0	5318	0.010905521921813488
0	5358	0.007308249827474356
0	5364	0.0011015776544809341
0	5410	0.008481555618345737
0	5402	-0.0014805857790634036
0	5430	0.005200465675443411
0	5456	0.004844118375331163
0	5440	-0.002990169683471322
0	5464	0.004498088266700506
0	5404	-0.01127565186470747
0	5438	0.006408161949366331
0	5422	-0.003023164812475443
0	5424	0.0003787352761719376
0	5462	0.007209440693259239
0	5428	-0.006458721123635769
0	5458	0.005704144947230816
0	5444	-0.0026618330739438534
0	5450	0.0011400919174775481
0	5490	0.0075877332128584385
0	5464	-0.004919025115668774
0	5498	0.006413561757653952
0	5464	-0.006390977650880814
0	5470	0.0011239323066547513
0	5488	0.0033599224407225847
0	5492	0.0007441675988957286
0	5512	0.0037099786568433046
0	5514	0.0003699638764373958
0	5512	-0.00036901733255945146
0	5526	0.0025772564113140106
0	5502	-0.004410143475979567
0	5536	0.006238379515707493
0	5520	-0.002931799041107297
0	5542	0.004027239046990871
0	5568	0.004754300229251385
0	5542	-0.004749726038426161
0	5584	0.007666098885238171
0	5552	-0.005835369694977999
0	5566	0.0025514853186905384
0	5540	-0.0047348481602966785
0	5540	0.0
0	5554	0.0025462571065872908
0	5534	-0.0036349536385387182
0	5550	0.0029059911612421274
0	5556	0.0010889159748330712
0	5542	-0.002539359964430332
0	5586	0.007975349202752113
0	5666	0.014489429071545601
0	5696	0.005426263436675072
0	5628	-0.012281314469873905
0	5564	-0.011549288406968117
0	5532	-0.0057711731642484665
0	5432	-0.018031230196356773
0	5452	0.0036069396883249283
0	5428	-0.004328796174377203
0	5436	0.0014434527838602662
0	5476	0.00721969548612833
0	5460	-0.0028885037172585726
0	5484	0.004334164317697287
0	5498	0.0025286884047091007
0	5562	0.01156166847795248
0	6338	0.14013460278511047
0	6018	-0.05750982463359833
1	4248	-0.31715503334999084
0	932	-0.5988009572029114
0	3554	0.48707085847854614
0	5694	0.4024876654148102
0	6546	0.16013231873512268
0	6784	0.04445495828986168
0	6812	0.005190631840378046
0	6766	-0.008460963144898415
0	6694	-0.013144442811608315
0	6592	-0.01849300041794777
0	6502	-0.016213683411478996
0	6438	-0.011464192532002926
0	6340	-0.017462579533457756
0	6264	-0.01347852312028408
0	6174	-0.015897689387202263
0	6134	-0.007044568657875061
0	6116	-0.0031619255896657705
0	6042	-0.01296199019998312
0	6024	-0.0031441415194422007
0	5992	-0.005573618225753307
0	5956	-0.0062500000931322575
0	5936	-0.0034621243830770254
0	5936	0.0
0	5904	-0.005507366266101599
0	5890	-0.0024035710375756025
0	5794	-0.01644117198884487
0	5756	-0.00649646669626236
0	5668	-0.015022363513708115
0	5608	-0.01023634523153305
0	5484	-0.021243304014205933
0	5360	-0.021308282390236855
0	5234	-0.021514924243092537
0	5084	-0.025000834837555885
0	4978	-0.01751834526658058
0	4894	-0.01393743697553873
0	4838	-0.00937730260193348
0	4868	0.005078720394521952
0	4894	0.004450378008186817
0	4964	0.012111146003007889
0	5016	0.009087519720196724
0	5044	0.004938620142638683
0	5114	0.012453299947082996
0	5210	0.017213966697454453
0	5284	0.013359329663217068
0	5296	0.0021792296320199966
0	5332	0.006572621408849955
0	5372	0.007338731549680233
0	5382	0.0018430688651278615
0	5412	0.00555171724408865
0	5418	0.0011145510943606496
0	5432	0.0026098950766026974
0	5418	-0.0026184211019426584
0	5398	-0.0037527205422520638
0	5422	0.004518469329923391
0	5384	-0.007175948936492205
0	5432	0.00909331999719143
0	5410	-0.0041773212142288685
0	5418	0.0015223596710711718
0	5428	0.0019059721380472183
0	5414	-0.0026714159175753593
0	5450	0.0068724146112799644
0	5448	-0.0003815822710748762
0	5470	0.004191700369119644
0	5464	-0.0011403952958062291
0	5446	-0.003410684410482645
0	5500	0.010196503251791
0	5478	-0.004136893432587385
0	5484	0.0011239462764933705
0	5518	0.00634565157815814
0	5516	-0.000371991511201486
0	5542	0.004820945207029581
0	5522	-0.003697039792314172
0	5538	0.0029502150136977434
0	5544	0.0011041047982871532
0	5548	0.0007348978542722762
0	5562	0.002568179043009877
0	5544	-0.0032973072957247496
0	5504	-0.0073196617886424065
0	5542	0.006948508322238922
0	5554	0.0021925284527242184
0	5550	-0.0007302379817701876
0	5526	-0.004378283862024546
0	5584	0.010573907755315304
0	5570	-0.0025494410656392574
0	5646	0.013827399350702763
0	5706	0.010899050161242485
0	5680	-0.00471509899944067
0	5640	-0.007242178078740835
0	5562	-0.014103352092206478
0	5496	-0.011923975311219692
0	5450	-0.008306547999382019
0	5442	-0.0014446170534938574
0	5456	0.002528171055018902
0	5464	0.0014447909779846668
0	5476	0.0021671864669770002
0	5494	0.003250192617997527
0	5504	0.0018057278357446194
0	5548	0.007943958975374699
0	5658	0.019852252677083015
0	6678	0.18392959237098694
1	5736	-0.16868619620800018
0	2040	-0.6610860824584961
0	960	-0.19726988673210144
0	3162	0.41374385356903076
0	5366	0.42039138078689575
0	6468	0.21043922007083893
0	6788	0.06075718626379967
0	6790	0.0003767660818994045
0	6720	-0.01308117713779211
0	6654	-0.012243838049471378
0	6580	-0.013635191135108471
0	6478	-0.01867630146443844
0	6414	-0.011650768108665943
0	6326	-0.01593952625989914
0	6276	-0.009015398100018501
0	6208	-0.012214690446853638
0	6098	-0.01969984732568264
0	6056	-0.007503036875277758
0	6018	-0.00677168695256114
0	5988	-0.005331627558916807
0	6002	0.0024808617308735847
0	5960	-0.007418397348374128
0	5966	0.0010565487900748849
0	5926	-0.007022636476904154
0	5926	0.0
0	5900	-0.0045404802076518536
0	5818	-0.014286212623119354
0	5806	-0.0020868596620857716
0	5670	-0.023615757003426552
0	5608	-0.01076525915414095
0	5510	-0.017122089862823486
0	5330	-0.03149018436670303
0	5228	-0.017508525401353836
0	5058	-0.02848525531589985
0	4972	-0.014259184710681438
0	4892	-0.013293305411934853
0	4848	-0.007375702727586031
0	4852	0.000677866511978209
0	4872	0.0034268482122570276
0	4920	0.008312168531119823
0	4986	0.011544785462319851
0	5044	0.010240594856441021
0	5110	0.011752276681363583
0	5154	0.007895964197814465
0	5246	0.016626305878162384
0	5292	0.008365055546164513
0	5332	0.007314575836062431
0	5380	0.008818666450679302
0	5412	0.005903550423681736
0	5454	0.0077773937955498695
0	5432	-0.0040873452089726925
0	5440	0.0014915725914761424
0	5430	-0.0018705107504501939
0	5438	0.0015014263335615396
0	5450	0.002259036060422659
0	5420	-0.005664510186761618
0	5438	0.003409004770219326
0	5446	0.0015187566168606281
0	5438	-0.0015222243964672089
0	5466	0.005335636902600527
0	5440	-0.004958992823958397
0	5486	0.008777509443461895
0	5480	-0.0011437576031312346
0	5476	-0.000761286064516753
0	5500	0.004555635619908571
0	5488	-0.0022702335845679045
0	5502	0.002638688310980797
0	5504	0.0003754129575099796
0	5508	0.0007477753679268062
0	5518	0.0018620587652549148
0	5494	-0.004452414810657501
0	5524	0.0055480897426605225
0	5528	0.0007375628338195384
0	5522	-0.0011035091010853648
0	5556	0.00623914273455739
0	5528	-0.0051283929497003555
0	5534	0.0010973602766171098
0	5540	0.0010960105573758483
0	5554	0.0025548688136041164
0	5558	0.0007293325033970177
0	5532	-0.00473766727373004
0	5536	0.0007284294115379453
0	5530	-0.001092007732950151
0	5544	0.0025464731734246016
0	5552	0.0014541929122060537
0	5558	0.0010899710468947887
0	5592	0.006171345245093107
0	5674	0.014869977720081806
0	5700	0.004708381835371256
0	5614	-0.015549288131296635
0	5564	-0.009032227098941803
0	5516	-0.008664468303322792
0	5444	-0.012994357384741306
0	5468	0.004332390613853931
0	5446	-0.003971549216657877
0	5454	0.001444669091142714
0	5478	0.004334894474595785
0	5466	-0.0021677606273442507
0	5480	0.0025296329986304045
0	5502	0.003975807689130306
0	5542	0.00722943851724267
0	6174	0.11419210582971573
0	6022	-0.0273568257689476
1	4468	-0.2788611054420471
0	862	-0.6511924862861633
0	2888	0.3765052556991577
0	5546	0.5021663308143616
0	6536	0.18702299892902374
0	6770	0.04392991214990616
0	6764	-0.0011179012944921851
0	6716	-0.008876725099980831
0	6618	-0.017991995438933372
0	6510	-0.019697485491633415
0	6452	-0.010515628382563591
0	6344	-0.019473962485790253
0	6290	-0.009690850041806698
0	6174	-0.020726623013615608
0	6174	0.0
0	6092	-0.014557763002812862
0	6046	-0.008147649466991425
0	6024	-0.003886788384988904
0	5970	-0.009514524601399899
0	5948	-0.003865979379042983
0	5914	-0.005957108456641436
0	5898	-0.002796062035486102
0	5904	0.001045769895426929
0	5876	-0.004867533687502146
0	5866	-0.0017344048246741295
0	5790	-0.01315106451511383
0	5774	-0.0027637032326310873
0	5672	-0.01759105920791626
0	5576	-0.016543926671147346
0	5492	-0.014525835402309895
0	5338	-0.02671230584383011
0	5194	-0.024852724745869637
0	5076	-0.019870227202773094
0	4982	-0.015636783093214035
0	4952	-0.005006118677556515
0	4912	-0.006734157912433147
0	4910	-0.0003402556467335671
0	4936	0.004470324143767357
0	4952	0.002779321977868676
0	5066	0.01999555714428425
0	5098	0.005660577677190304
0	5174	0.01355206873267889
0	5212	0.006823487114161253
0	5288	0.013735600747168064
0	5338	0.009085073135793209
0	5364	0.004748280625790358
0	5414	0.009171956218779087
0	5414	0.0
0	5436	0.0040665436536073685
0	5456	0.0037090610712766647
0	5424	-0.005952602718025446
0	5460	0.006717086303979158
0	5434	-0.004864480346441269
0	5438	0.0007505816756747663
0	5410	-0.005268505308777094
0	5408	-0.0003774012147914618
0	5434	0.004918032791465521
0	5398	-0.006824213080108166
0	5418	0.003797804703935981
0	5432	0.0026611248031258583
0	5458	0.0049439687281847
0	5474	0.0030401297844946384
0	5454	-0.003793434938415885
0	5476	0.004162829834967852
0	5470	-0.0011317906901240349
0	5482	0.0022562327794730663
0	5502	0.0037470022216439247
0	5508	0.0011199600994586945
0	5520	0.00223197671584785
0	5506	-0.002594834892079234
0	5528	0.0040665436536073685
0	5520	-0.001474835560657084
0	5524	0.0007358532166108489
0	5520	-0.0007344480836763978
0	5514	-0.001100110006518662
0	5524	0.0018315465422347188
0	5518	-0.0010978555073961616
0	5538	0.0036571987438946962
0	5536	-0.00036544367321766913
0	5508	-0.005113096907734871
0	5530	0.004016161896288395
0	5538	0.001459481194615364
0	5572	0.006199853960424662
0	5560	-0.0021863498259335756
0	5536	-0.004369462374597788
0	5566	0.005457654595375061
0	5542	-0.004361944273114204
0	5550	0.0014530307380482554
0	5526	-0.004355084616690874
0	5512	-0.0025388074573129416
0	5544	0.005800183396786451
0	5550	0.0010869697434827685
0	5550	0.0
0	5642	0.016649575904011726
0	5704	0.011209140531718731
0	5682	-0.0039718360640108585
0	5600	-0.014786319807171822
0	5550	-0.009010741487145424
0	5466	-0.015134225599467754
0	5406	-0.010813668370246887
0	5426	0.003606722690165043
0	5440	0.002526255091652274
0	5448	0.0014442693209275603
0	5474	0.004696022719144821
0	5460	-0.002529327990487218
0	5520	0.010843504220247269
0	5506	-0.0025302120484411716
0	5718	0.03831740841269493
0	6610	0.16104765236377716
1	4828	-0.3196680247783661
0	1232	-0.6477100849151611
0	1842	0.11278334259986877
0	4286	0.46240589022636414
0	6198	0.36470916867256165
0	6636	0.08320984989404678
0	6770	0.025280792266130447
0	6800	0.005617346148937941
0	6692	-0.020064901560544968
0	6644	-0.008855108171701431
0	6524	-0.021986613050103188
0	6454	-0.012746740132570267
0	6352	-0.018471792340278625
0	6252	-0.01802234910428524
0	6200	-0.009332263842225075
0	6132	-0.012163129635155201
0	6090	-0.007493399083614349
0	6040	-0.008899119682610035
0	5990	-0.008875949308276176
0	5964	-0.004603507928550243
0	5930	-0.006002330221235752
0	5902	-0.004927900154143572
0	5900	-0.00035101268440485
0	5852	-0.00840169470757246
0	5830	-0.00384172098711133
0	5838	0.00139410060364753
0	5748	-0.01564927026629448
0	5702	-0.007987960241734982
0	5604	-0.016998542472720146
0	5542	-0.010761273093521595
0	5406	-0.023752139881253242
0	5288	-0.020539360120892525
0	5138	-0.025509048253297806
0	5014	-0.020700708031654358
0	4918	-0.015961691737174988
0	4936	0.003014200134202838
0	4892	-0.007438630796968937
0	4952	0.010252087377011776
0	4994	0.007252800278365612
0	5046	0.009068291634321213
0	5132	0.015138179995119572
0	5158	0.004614347126334906
0	5212	0.009657688438892365
0	5306	0.016926568001508713
0	5300	-0.0010865890653803945
0	5354	0.009832722134888172
0	5366	0.002195416484028101
0	5402	0.006615458521991968
0	5434	0.005903478246182203
0	5440	0.001110699726268649
0	5436	-0.0007428684621118009
0	5404	-0.005961177404969931
0	5420	0.0029898344073444605
0	5390	-0.005622750613838434
0	5406	0.003007480874657631
0	5398	-0.0015077460557222366
0	5412	0.0026458692736923695
0	5454	0.007954444736242294
0	5420	-0.006449410226196051
0	5430	0.0018990947864949703
0	5436	0.0011402653763070703
0	5450	0.0026601136196404696
0	5452	0.0003796266973949969
0	5472	0.0037887399084866047
0	5488	0.003022251185029745
0	5498	0.0018821520498022437
0	5454	-0.008252372965216637
0	5496	0.007849684916436672
0	5520	0.004470383748412132
0	5492	-0.00519846985116601
0	5508	0.0029623776208609343
0	5522	0.002586079528555274
0	5510	-0.0022116824984550476
0	5558	0.008830564096570015
0	5548	-0.0018368620658293366
0	5566	0.0033013387583196163
0	5534	-0.005861449986696243
0	5534	0.0
0	5536	0.00036567082861438394
0	5516	-0.0036544366739690304
0	5554	0.006940216291695833
0	5552	-0.00036501235445030034
0	5546	-0.001094051986001432
0	5538	-0.0014576197136193514
0	5538	0.0
0	5570	0.005820580758154392
0	5532	-0.006904738489538431
0	5540	0.0014525734586641192
0	5536	-0.0007259089034050703
0	5536	0.0
0	5590	0.009786627255380154
0	5674	0.015209492295980453
0	5678	0.000723283679690212
0	5598	-0.014445995911955833
0	5568	-0.005413142964243889
0	5518	-0.009017566218972206
0	5426	-0.01659032702445984
0	5458	0.0057715196162462234
0	5452	-0.0010824071941897273
0	5452	0.0
0	5476	0.00433244276791811
0	5462	-0.0025277449749410152
0	5500	0.00686350092291832
0	5540	0.0072251721285283566
0	5670	0.023484354838728905
0	6598	0.16751910746097565
1	5500	-0.19698363542556763
0	2076	-0.614398181438446
0	1084	-0.1817626655101776
0	3900	0.5303934216499329
0	6012	0.4018723666667938
0	6676	0.12598027288913727
0	6804	0.024113938212394714
0	6826	0.004112097900360823
0	6774	-0.009642128832638264
0	6640	-0.02465864270925522
0	6528	-0.02047581970691681
0	6446	-0.014900782145559788
0	6374	-0.013012205250561237
0	6314	-0.010789037682116032
0	6238	-0.013602682389318943
0	6150	-0.01568981632590294
0	6096	-0.009600682184100151
0	6082	-0.002482915297150612
0	6054	-0.0049516623839735985
0	5986	-0.011991112492978573
0	5976	-0.0017585612367838621
0	5972	-0.0007011639536358416
0	5908	-0.01118503138422966
0	5908	0.0
0	5864	-0.007649069651961327
0	5820	-0.007631910499185324
0	5758	-0.010731842368841171
0	5668	-0.015555325895547867
0	5576	-0.015889281406998634
0	5450	-0.021773191168904305
0	5316	-0.023309754207730293
0	5142	-0.030300216749310493
0	4996	-0.02497975341975689
0	4928	-0.011380499228835106
0	4892	-0.005990614648908377
0	4834	-0.00971188023686409
0	4856	0.003722084453329444
0	4916	0.010263895615935326
0	4972	0.00968511775135994
0	5050	0.01363159716129303
0	5088	0.006703122053295374
0	5180	0.016367195174098015
0	5192	0.002151000313460827
0	5266	0.013358848169445992
0	5296	0.005450119264423847
0	5318	0.004019684158265591
0	5374	0.01028403453528881
0	5394	0.003689174773171544
0	5374	-0.0037048470694571733
0	5418	0.008185031823813915
0	5400	-0.0033602567855268717
0	5402	0.0003747049195226282
0	5422	0.0037604353856295347
0	5394	-0.005280693992972374
0	5420	0.0049193971790373325
0	5432	0.002276867162436247
0	5412	-0.003804113483056426
0	5440	0.005337467882782221
0	5438	-0.0003818008117377758
0	5428	-0.0019106819527223706
0	5482	0.010319128632545471
0	5450	-0.006108580157160759
0	5476	0.004953513387590647
0	5506	0.005698222201317549
0	5482	-0.004541956353932619
0	5508	0.004902207292616367
0	5500	-0.0015020088758319616
0	5526	0.004861933644860983
0	5548	0.004098360426723957
0	5534	-0.002598752500489354
0	5546	0.002220851369202137
0	5540	-0.0011072970228269696
0	5566	0.004787684418261051
0	5556	-0.001837199553847313
0	5572	0.0029343082569539547
0	5566	-0.0010985122062265873
0	5574	0.0014624693430960178
0	5574	0.0
0	5596	0.0040124994702637196
0	5722	0.02294970490038395
0	5726	0.0007272198563441634
0	5614	-0.020322008058428764
0	5588	-0.004711567424237728
0	5504	-0.01520673930644989
0	5466	-0.006874675862491131
0	5478	0.002170348074287176
0	5452	-0.004701117519289255
0	5482	0.005423059221357107
0	5468	-0.002530120313167572
0	5502	0.006143467966467142
0	5530	0.0050570727325975895
0	5526	-0.0007222302374430001
0	5794	0.04836730659008026
0	6744	0.17112389206886292
1	5740	-0.1795165240764618
0	866	-0.8701395988464355
0	1840	0.17882497608661652
0	4160	0.43570804595947266
0	6092	0.36596915125846863
0	6730	0.12043946981430054
0	6798	0.012740922160446644
0	6758	-0.007436510641127825
0	6686	-0.01328543946146965
0	6610	-0.013927577063441277
0	6516	-0.017116013914346695
0	6398	-0.021363653242588043
0	6322	-0.013690898194909096
0	6272	-0.008966893889009953
0	6174	-0.017502082511782646
0	6166	-0.0014238421572372317
0	6082	-0.014911066740751266
0	6082	0.0
0	6042	-0.007066055666655302
0	6014	-0.00493305129930377
0	5994	-0.0035130863543599844
0	5956	-0.00665429187938571
0	5956	0.0
0	5934	-0.0038305281195789576
0	5904	-0.005209780763834715
0	5850	-0.009353997185826302
0	5768	-0.014175733551383018
0	5692	-0.013120489194989204
0	5588	-0.017937220633029938
0	5434	-0.026592377573251724
0	5258	-0.03062218613922596
0	5054	-0.03559339791536331
0	4930	-0.021120762452483177
0	4860	-0.01171744242310524
0	4814	-0.007670075166970491
0	4840	0.004366274457424879
0	4876	0.0061102560721337795
0	4924	0.008236573077738285
0	4990	0.011445351876318455
0	5044	0.009457092732191086
0	5140	0.01696772687137127
0	5208	0.012117036618292332
0	5220	0.0021535223349928856
0	5308	0.015897294506430626
0	5320	0.002180470386520028
0	5370	0.009132531471550465
0	5394	0.004404962994158268
0	5414	0.003686318639665842
0	5460	0.008513472974300385
0	5442	-0.0033433635253459215
0	5446	0.000745610217563808
0	5448	0.0003740788088180125
0	5446	-0.000375267380150035
0	5446	0.0
0	5446	0.0
0	5446	0.0
0	5442	-0.0007593687041662633
0	5432	-0.0019023462664335966
0	5470	0.007240853738039732
0	5462	-0.0015255335019901395
0	5466	0.0007626310689374804
0	5486	0.0038081216625869274
0	5484	-0.0003797708486672491
0	5482	-0.0003784438595175743
0	5502	0.003769649425521493
0	5482	-0.0037534248549491167
0	5530	0.008972186595201492
0	5506	-0.0044678873382508755
0	5530	0.004451808985322714
0	5534	0.0007394990534521639
0	5496	-0.00700409198179841
0	5530	0.006253141909837723
0	5520	-0.001835535978898406
0	5538	0.0032979112584143877
0	5550	0.0021955235861241817
0	5518	-0.005846528336405754
0	5558	0.00730157969519496
0	5560	0.00036471502971835434
0	5674	0.020770324394106865
0	5676	0.00036391866160556674
0	5592	-0.015262922272086143
0	5560	-0.005809309426695108
0	5520	-0.007256718352437019
0	5444	-0.013781597837805748
0	5434	-0.0018133900593966246
0	5442	0.00145081733353436
0	5458	0.0029017047490924597
0	5458	0.0
0	5470	0.002175726229324937
0	5496	0.004714073613286018
0	5510	0.002537825843319297
0	5596	0.015585357323288918
0	6564	0.17530938982963562
1	5586	-0.17597313225269318
0	2446	-0.5646331310272217
0	852	-0.2919806241989136
0	3070	0.41810140013694763
0	5422	0.45032167434692383
0	6458	0.1984623670578003
0	6780	0.061320871114730835
0	6820	0.007557721808552742
0	6792	-0.005246655084192753
0	6718	-0.013757715933024883
0	6628	-0.01660904660820961
0	6528	-0.018331581726670265
0	6418	-0.020044950768351555
0	6350	-0.012324050068855286
0	6290	-0.01082237996160984
0	6214	-0.013648444786667824
0	6152	-0.01109838206321001
0	6082	-0.012494943104684353
0	6042	-0.0071192109026014805
0	6020	-0.0039044013246893883
0	5960	-0.010616962797939777
0	5972	0.002116949763149023
0	5940	-0.005627396050840616
0	5920	-0.0035068851429969072
0	5920	0.0
0	5856	-0.011161752045154572
0	5842	-0.0024361666291952133
0	5776	-0.011461782269179821
0	5702	-0.012831331230700016
0	5584	-0.020448245108127594
0	5448	-0.023701637983322144
0	5288	-0.02790665253996849
0	5152	-0.023335088044404984
0	4988	-0.027463939040899277
0	4932	-0.009278589859604836
0	4870	-0.010300599969923496
0	4892	0.003687480464577675
0	4892	0.0
0	4900	0.001370113343000412
0	4984	0.014543271623551846
0	5050	0.011542362160980701
0	5100	0.008825398050248623
0	5192	0.016376322135329247
0	5232	0.007172314915806055
0	5304	0.012997015379369259
0	5328	0.00435819523409009
0	5380	0.009493670426309109
0	5400	0.003668647725135088
0	5394	-0.0011052030604332685
0	5426	0.005917962174862623
0	5414	-0.002227391814813018
0	5460	0.008567278273403645
0	5422	-0.00709988409653306
0	5432	0.0018744377885013819
0	5418	-0.002632238669320941
0	5404	-0.0026405462995171547
0	5448	0.008322509936988354
0	5418	-0.005688569508492947
0	5444	0.004941274877637625
0	5440	-0.0007614406058564782
0	5438	-0.0003810685302596539
0	5472	0.006478575989603996
0	5446	-0.004948421847075224
0	5468	0.004179331474006176
0	5476	0.0015151514671742916
0	5456	-0.003774914424866438
0	5498	0.007898201234638691
0	5494	-0.000749363040085882
0	5508	0.002612947952002287
0	5578	0.01301550678908825
0	5508	-0.012967766262590885
0	5536	0.0051724775694310665
0	5532	-0.000736946880351752
0	5528	-0.0007354113040491939
0	5576	0.008808955550193787
0	5544	-0.005862881429493427
0	5524	-0.003659473732113838
0	5558	0.006215645931661129
0	5538	-0.0036527456250041723
0	5566	0.005109364632517099
0	5676	0.02005542628467083
0	5702	0.004732837434858084
0	5674	-0.005089428275823593
0	5596	-0.014156079851090908
0	5554	-0.007614949252456427
0	5450	-0.018840579316020012
0	5450	0.0
0	5440	-0.0018110692035406828
0	5442	0.00036216573789715767
0	5472	0.005432551726698875
0	5468	-0.0007242003339342773
0	5482	0.00253424234688282
0	5486	0.0007240255945362151
0	5522	0.0065146577544510365
0	5678	0.028220992535352707
0	6568	0.1608085036277771
1	5570	-0.1791226863861084
0	2622	-0.5288841128349304
0	732	-0.34499964118003845
0	2896	0.4068382680416107
0	5492	0.49639877676963806
0	6498	0.19238369166851044
0	6806	0.05854177474975586
0	6794	-0.002262585796415806
0	6786	-0.0014964832225814462
0	6712	-0.013738813810050488
0	6644	-0.012534254230558872
0	6520	-0.022700367495417595
0	6444	-0.013831930235028267
0	6348	-0.017376404255628586
0	6230	-0.021258197724819183
0	6174	-0.010055184364318848
0	6124	-0.008952551521360874
0	6062	-0.011071428656578064
0	6056	-0.0010684648295864463
0	5986	-0.012428388930857182
0	6000	0.002477817703038454
0	5976	-0.004233948886394501
0	5930	-0.008089571259915829
0	5924	-0.0010521516669541597
0	5902	-0.0038477235939353704
0	5866	-0.0062803844921290874
0	5844	-0.003829461522400379
0	5786	-0.010074924677610397
0	5722	-0.011100190691649914
0	5614	-0.018726808950304985
0	5506	-0.018830640241503716
0	5334	-0.03000069595873356
0	5152	-0.031252145767211914
0	5058	-0.015742933377623558
0	4936	-0.020188648253679276
0	4884	-0.008631469681859016
0	4824	-0.010049128904938698
0	4826	0.0003387189644854516
0	4896	0.011988353915512562
0	4922	0.004501385148614645
0	4998	0.013295235112309456
0	5048	0.008831633254885674
0	5128	0.014254151843488216
0	5198	0.012570635415613651
0	5246	0.008679613471031189
0	5318	0.013097100891172886
0	5338	0.0036570648662745953
0	5356	0.0033072023652493954
0	5396	0.007381254341453314
0	5386	-0.0018528354121372104
0	5406	0.0037194539327174425
0	5400	-0.0011199600994586945
0	5402	0.0003746628062799573
0	5416	0.0026313152629882097
0	5388	-0.005279432516545057
0	5414	0.004918218590319157
0	5418	0.0007588117150589824
0	5424	0.0011412919266149402
0	5442	0.0034317525569349527
0	5424	-0.003437870182096958
0	5430	0.0011473444756120443
0	5434	0.0007652671192772686
0	5452	0.0034415072295814753
0	5462	0.0019082998624071479
0	5458	-0.000761363364290446
0	5504	0.008726775646209717
0	5514	0.0018897162517532706
0	5500	-0.002634153701364994
0	5546	0.008618643507361412
0	5512	-0.006344546563923359
0	5520	0.0014873758191242814
0	5514	-0.001111934776417911
0	5538	0.004434972535818815
0	5554	0.0029491998720914125
0	5496	-0.01066751591861248
0	5542	0.00844749715179205
0	5526	-0.0029342363122850657
0	5570	0.00805988721549511
0	5546	-0.004390565212816
0	5576	0.00548319099470973
0	5670	0.017160799354314804
0	5692	0.004009915515780449
0	5658	-0.0061861672438681126
0	5584	-0.013443139381706715
0	5538	-0.008348053321242332
0	5438	-0.01813148893415928
0	5444	0.001087731565348804
0	5462	0.0032626823522150517
0	5450	-0.0021746221464127302
0	5460	0.00181209750007838
0	5456	-0.000724681478459388
0	5482	0.004709689877927303
0	5498	0.0028974309097975492
0	5480	-0.0032587051391601562
0	5624	0.02606680803000927
0	6648	0.1851784884929657
1	5770	-0.1576886773109436
0	1082	-0.8406756520271301
0	1594	0.09430486708879471
0	4202	0.4923107922077179
0	6004	0.34298986196517944
0	6686	0.1294134110212326
0	6852	0.03126765787601471
0	6860	0.0014945449074730277
0	6768	-0.017048612236976624
0	6684	-0.015444772318005562
0	6582	-0.018624015152454376
0	6472	-0.01995645835995674
0	6404	-0.012269790284335613
0	6308	-0.017233125865459442
0	6278	-0.00536186620593071
0	6228	-0.008904190734028816
0	6156	-0.01278136670589447
0	6092	-0.01132783479988575
0	6062	-0.005294055212289095
0	6052	-0.0017592624062672257
0	5988	-0.011218885891139507
0	5986	-0.0003494792908895761
0	5980	-0.0010452476562932134
0	5962	-0.003126121824607253
0	5958	-0.000692680710926652
0	5886	-0.012432226911187172
0	5872	-0.0024117694701999426
0	5784	-0.015127205289900303
0	5704	-0.01372809149324894
0	5602	-0.01749531179666519
0	5448	-0.026573410257697105
0	5320	-0.022127974778413773
0	5106	-0.03611326962709427
0	4978	-0.021181998774409294
0	4888	-0.01483011245727539
0	4808	-0.013263626024127007
0	4828	0.003350682556629181
0	4806	-0.003727886825799942
0	4878	0.012343562208116055
0	4898	0.003466204507276416
0	4974	0.013308894820511341
0	5022	0.008485262282192707
0	5096	0.013194181025028229
0	5222	0.022641781717538834
0	5252	0.005426197778433561
0	5290	0.0069159651175141335
0	5334	0.008053789846599102
0	5368	0.006254752166569233
0	5408	0.007391347084194422
0	5398	-0.0018553106347098947
0	5410	0.002235413994640112
0	5400	-0.001869554864242673
0	5424	0.0045033772476017475
0	5410	-0.0026361378841102123
0	5364	-0.008691709488630295
0	5422	0.01100026536732912
0	5406	-0.0030434837099164724
0	5394	-0.0022893771529197693
0	5424	0.005737673491239548
0	5396	-0.005364738404750824
0	5442	0.008825109340250492
0	5456	0.0026860057841986418
0	5472	0.0030670533888041973
0	5470	-0.0003824871964752674
0	5476	0.0011438739020377398
0	5518	0.007977309636771679
0	5492	-0.004916234873235226
0	5496	0.0007531916489824653
0	5502	0.0011249156668782234
0	5492	-0.0018675763858482242
0	5532	0.007442783564329147
0	5522	-0.001854278496466577
0	5520	-0.00036971308873035014
0	5548	0.005162495654076338
0	5516	-0.0058881975710392
0	5582	0.012124774977564812
0	5710	0.0234727431088686
0	5706	-0.0007318411953747272
0	5622	-0.015337050892412663
0	5582	-0.007293857168406248
0	5562	-0.0036428545136004686
0	5440	-0.022200925275683403
0	5488	0.008732670918107033
0	5472	-0.0029097609221935272
0	5464	-0.001454334007576108
0	5488	0.004360359627753496
0	5468	-0.003632181091234088
0	5510	0.007624718826264143
0	5506	-0.0007256543030962348
0	5542	0.006527652032673359
0	5868	0.059059396386146545
0	6790	0.1666044145822525
1	5530	-0.22586582601070404
0	1372	-0.7450989484786987
0	1794	0.07751843333244324
0	4186	0.449528306722641
0	5942	0.3327816426753998
0	6654	0.13454948365688324
0	6838	0.034519415348768234
0	6826	-0.002232613507658243
0	6758	-0.012547668069601059
0	6656	-0.01868063397705555
0	6568	-0.01600581966340542
0	6446	-0.022049788385629654
0	6386	-0.010785805992782116
0	6308	-0.013948830775916576
0	6244	-0.011395875364542007
0	6206	-0.006744923535734415
0	6122	-0.014865853823721409
0	6086	-0.006352343130856752
0	6076	-0.0017593244556337595
0	6042	-0.005963726434856653
0	6002	-0.00699154008179903
0	6002	0.0
0	6000	-0.00034746353048831224
0	5992	-0.0013855532743036747
0	5986	-0.001036150148138404
0	5938	-0.008264558389782906
0	5894	-0.007557280361652374
0	5842	-0.008911536075174809
0	5708	-0.022925054654479027
0	5626	-0.014041577465832233
0	5476	-0.025857610628008842
0	5334	-0.024486135691404343
0	5158	-0.02967325784265995
0	4996	-0.026806103065609932
0	4926	-0.011531365104019642
0	4840	-0.01424658764153719
0	4852	0.0020080097019672394
0	4850	-0.00033841709955595434
0	4860	0.0017111566849052906
0	4950	0.015568958595395088
0	5004	0.009434182196855545
0	5070	0.011636653915047646
0	5152	0.014575531706213951
0	5196	0.007878621108829975
0	5276	0.01442047767341137
0	5330	0.009790767915546894
0	5368	0.006926469970494509
0	5404	0.00659211864694953
0	5414	0.0018387986347079277
0	5462	0.008862192742526531
0	5426	-0.006670454982668161
0	5426	0.0
0	5446	0.0037323646247386932
0	5402	-0.008239597082138062
0	5414	0.002255469560623169
0	5422	0.0015090543311089277
0	5416	-0.00113547476939857
0	5440	0.004555635619908571
0	5422	-0.0034254398196935654
0	5482	0.011438884772360325
0	5476	-0.0011449361918494105
0	5480	0.0007632907945662737
0	5466	-0.002669038949534297
0	5458	-0.0015221858629956841
0	5468	0.001897173235192895
0	5464	-0.0007562770624645054
0	5480	0.003013258334249258
0	5512	0.006002851761877537
0	5498	-0.0026154210790991783
0	5508	0.0018607651581987739
0	5490	-0.0033378249499946833
0	5534	0.008134691044688225
0	5518	-0.0029496350325644016
0	5524	0.0011036308715119958
0	5656	0.02423115074634552
0	5732	0.013918903656303883
0	5682	-0.009134755469858646
0	5604	-0.01422302145510912
0	5542	-0.011291751638054848
0	5524	-0.0032757052686065435
0	5442	-0.014917045831680298
0	5458	0.0029103609267622232
0	5460	0.0003637245390564203
0	5480	0.0036369366571307182
0	5476	-0.0007270436035469174
0	5478	0.00036338530480861664
0	5540	0.011261125095188618
0	5522	-0.00326690636575222
0	5732	0.038095008581876755
0	6688	0.17309850454330444
1	5468	-0.21930348873138428
0	2076	-0.6097648739814758
0	1056	-0.1871788501739502
0	3502	0.4613063335418701
0	5644	0.4090023934841156
0	6578	0.17814227938652039
0	6798	0.041665613651275635
0	6840	0.007888706400990486
0	6766	-0.013784538954496384
0	6704	-0.0114589873701334
0	6572	-0.024218108505010605
0	6484	-0.016039272770285606
0	6422	-0.011235547251999378
0	6318	-0.018744366243481636
0	6270	-0.008610174991190434
0	6174	-0.017157359048724174
0	6128	-0.008199643343687057
0	6094	-0.0060445875860750675
0	6026	-0.012054172344505787
0	6032	0.0010605703573673964
0	5970	-0.010926522314548492
0	5976	0.0010541357332840562
0	5952	-0.004203790333122015
0	5946	-0.0010479373158887029
0	5950	0.0006967345834709704
0	5920	-0.005211167968809605
0	5890	-0.0051978654228150845
0	5822	-0.01175806112587452
0	5742	-0.013809135183691978
0	5632	-0.018986467272043228
0	5460	-0.029869409278035164
0	5310	-0.026050109416246414
0	5140	-0.02898089587688446
0	4992	-0.024658171460032463
0	4898	-0.015532739460468292
0	4844	-0.008959879167377949
0	4830	-0.002345425309613347
0	4832	0.0003387839824426919
0	4904	0.012336090207099915
0	4962	0.010044217109680176
0	5014	0.009096634574234486
0	5088	0.013063895516097546
0	5128	0.007120056077837944
0	5190	0.011121475137770176
0	5250	0.010835801251232624
0	5262	0.0021805493161082268
0	5350	0.01607952080667019
0	5382	0.005874937400221825
0	5404	0.004056695383042097
0	5420	0.0029616467654705048
0	5430	0.0018580453470349312
0	5438	0.0014914242783561349
0	5404	-0.00635981559753418
0	5426	0.004129284061491489
0	5422	-0.0007532294257543981
0	5426	0.0007557341014035046
0	5426	0.0
0	5392	-0.0064627318643033504
0	5434	0.00800518412142992
0	5438	0.000763893302064389
0	5436	-0.0003824189188890159
0	5452	0.0030598193407058716
0	5444	-0.0015285261906683445
0	5490	0.008772041648626328
0	5476	-0.0026613271329551935
0	5476	0.0
0	5500	0.004527561366558075
0	5476	-0.004508566111326218
0	5502	0.0048646628856658936
0	5502	0.0
0	5548	0.008546055294573307
0	5510	-0.007036515977233648
0	5530	0.0036938078701496124
0	5536	0.0011054066708311439
0	5534	-0.00036768760764971375
0	5544	0.001835244009271264
0	5540	-0.0007328334031626582
0	5552	0.002195951994508505
0	5586	0.00621541915461421
0	5708	0.022277679294347763
0	5684	-0.004374825395643711
0	5638	-0.008372160606086254
0	5538	-0.018178291618824005
0	5496	-0.007628689054399729
0	5432	-0.011619743891060352
0	5436	0.0007261900464072824
0	5450	0.002541511319577694
0	5448	-0.00036302031367085874
0	5490	0.007620844524353743
0	5478	-0.0021766468416899443
0	5526	0.008704482577741146
0	5528	0.00036248957621864974
0	5592	0.01159434299916029
0	6606	0.18353383243083954
1	5432	-0.21107260882854462
0	2140	-0.5920224189758301
0	1106	-0.18974566459655762
0	3870	0.5212209820747375
0	6016	0.4088086187839508
0	6668	0.1238006055355072
0	6836	0.031665850430727005
0	6810	-0.004861327353864908
0	6752	-0.010757341980934143
0	6650	-0.01877623237669468
0	6588	-0.011335519142448902
0	6470	-0.021436357870697975
0	6386	-0.015174689702689648
0	6316	-0.012581479735672474
0	6248	-0.012166320346295834
0	6210	-0.006772089749574661
0	6128	-0.014570007100701332
0	6078	-0.008860849775373936
0	6044	-0.006009757053107023
0	6006	-0.0066968216560781
0	5990	-0.002811291953548789
0	5960	-0.005254001822322607
0	5958	-0.0003491985844448209
0	5942	-0.0027853536885231733
0	5912	-0.0052076103165745735
0	5902	-0.0017316417070105672
0	5838	-0.011055449955165386
0	5752	-0.014829120598733425
0	5684	-0.011710274033248425
0	5560	-0.02134275808930397
0	5424	-0.023549510166049004
0	5256	-0.029091916978359222
0	5082	-0.029598549008369446
0	4930	-0.025286132469773293
0	4830	-0.016538402065634727
0	4838	0.0013317796401679516
0	4834	-0.0006727211293764412
0	4872	0.006463391240686178
0	4904	0.005503325257450342
0	4946	0.007300454191863537
0	5028	0.014395393431186676
0	5066	0.006732495501637459
0	5144	0.013934874907135963
0	5178	0.006119436584413052
0	5240	0.011235683225095272
0	5312	0.013127826154232025
0	5306	-0.001099988934583962
0	5410	0.0191627349704504
0	5406	-0.0007400646572932601
0	5416	0.0018574701389297843
0	5460	0.00820283405482769
0	5430	-0.005611322354525328
0	5442	0.0022519705817103386
0	5420	-0.004141982179135084
0	5412	-0.0015111255925148726
0	5444	0.006063592154532671
0	5408	-0.006841331720352173
0	5436	0.005335569381713867
0	5414	-0.004200664348900318
0	5436	0.00420789560303092
0	5466	0.005742579232901335
0	5448	-0.003444624599069357
0	5468	0.0038226789329200983
0	5446	-0.004194631241261959
0	5484	0.0072215888649225235
0	5492	0.0015140619361773133
0	5502	0.0018848009640350938
0	5526	0.004504617303609848
0	5490	-0.006729391403496265
0	5516	0.004842434544116259
0	5516	0.0
0	5502	-0.002590449759736657
0	5526	0.0044288611970841885
0	5528	0.00036820658715441823
0	5554	0.004776426590979099
0	5560	0.001100136898458004
0	5516	-0.008055460639297962
0	5572	0.010239282622933388
0	5668	0.0175357423722744
0	5698	0.005471191368997097
0	5640	-0.010559534654021263
0	5604	-0.006547041703015566
0	5522	-0.014896992594003677
0	5436	-0.015616110526025295
0	5448	0.0021787812002003193
0	5438	-0.0018152553820982575
0	5454	0.0029045140836387873
0	5484	0.0054444484412670135
0	5480	-0.0007257157703861594
0	5518	0.0068915486335754395
0	5530	0.0021752002649009228
0	5550	0.0036239323671907187
0	5600	0.009054252877831459
0	6248	0.11724970489740372
0	6502	0.045737747102975845
1	4740	-0.31535616517066956
0	552	-0.7529304623603821
0	2604	0.38019245862960815
0	5052	0.46189841628074646
0	6328	0.24142585694789886
0	6822	0.09299115091562271
0	6844	0.004107645247131586
0	6836	-0.0014813168672844768
0	6762	-0.013592280447483063
0	6646	-0.021147044375538826
0	6538	-0.01955883949995041
0	6426	-0.020164193585515022
0	6380	-0.008236740715801716
0	6286	-0.016750818118453026
0	6224	-0.011008001863956451
0	6174	-0.008849871344864368
0	6112	-0.010939374566078186
0	6092	-0.003518318757414818
0	6042	-0.008766495622694492
0	6008	-0.0059401788748800755
0	5974	-0.005920869298279285
0	5964	-0.0017360307974740863
0	5938	-0.004500397946685553
0	5954	0.0027622401248663664
0	5878	-0.013084948062896729
0	5840	-0.006528985220938921
0	5750	-0.015435980632901192
0	5676	-0.012677310965955257
0	5570	-0.01815151423215866
0	5388	-0.03128688782453537
0	5200	-0.03252595290541649
0	5024	-0.030369261279702187
0	4892	-0.02220577374100685
0	4808	-0.013951943255960941
0	4774	-0.005654854234308004
0	4788	0.0023487042635679245
0	4846	0.009842297062277794
0	4898	0.008924995549023151
0	4990	0.015967417508363724
0	5048	0.010170680470764637
0	5108	0.010620596818625927
0	5196	0.015709422528743744
0	5220	0.0043159774504601955
0	5278	0.01050331350415945
0	5322	0.00801681075245142
0	5368	0.008427377790212631
0	5406	0.0069961827248334885
0	5392	-0.002588757313787937
0	5444	0.009657051414251328
0	5410	-0.006337686907500029
0	5426	0.002993563888594508
0	5414	-0.0022528725676238537
0	5382	-0.006028408650308847
0	5398	0.0030247652903199196
0	5406	0.0015177001478150487
0	5440	0.006469536107033491
0	5470	0.0057229334488511086
0	5444	-0.004968722350895405
0	5470	0.004976076539605856
0	5458	-0.0022981169167906046
0	5488	0.005742725916206837
0	5484	-0.0007642922573722899
0	5502	0.003429268253967166
0	5514	0.002277356805279851
0	5514	0.0
0	5542	0.005265665240585804
0	5560	0.0033691460266709328
0	5528	-0.0059630293399095535
0	5574	0.008538441732525826
0	5554	-0.0036989999935030937
0	5554	0.0
0	5598	0.008090317249298096
0	5704	0.019442405551671982
0	5712	0.0014630220830440521
0	5596	-0.021157843992114067
0	5556	-0.00728367455303669
0	5530	-0.004728992469608784
0	5418	-0.020355740562081337
0	5460	0.0076322006061673164
0	5434	-0.004724238067865372
0	5482	0.008720401674509048
0	5494	0.0021793614141643047
0	5476	-0.0032674598041921854
0	5498	0.003991291858255863
0	5522	0.004351504612714052
0	5546	0.004348455928266048
0	6150	0.10936613380908966
0	6526	0.06780394911766052
1	4826	-0.3045794367790222
0	734	-0.735971212387085
0	2236	0.27801772952079773
0	4984	0.5190651416778564
0	6288	0.2470882385969162
0	6728	0.08296147733926773
0	6858	0.024325741454958916
0	6816	-0.007793750613927841
0	6750	-0.012151563540101051
0	6644	-0.019374648109078407
0	6538	-0.01924380287528038
0	6456	-0.014800375327467918
0	6352	-0.018669890239834785
0	6288	-0.011434560641646385
0	6230	-0.01032016146928072
0	6174	-0.009933304972946644
0	6128	-0.008137272670865059
0	6054	-0.013049458153545856
0	6044	-0.0017582932487130165
0	6014	-0.005259036552160978
0	6008	-0.0010481569916009903
0	5982	-0.004527566023170948
0	5972	-0.0017358498880639672
0	6016	0.0076161460019648075
0	5952	-0.011044765822589397
0	5930	-0.0037862707395106554
0	5882	-0.008240532130002975
0	5772	-0.018845727667212486
0	5716	-0.009581821970641613
0	5584	-0.02264176867902279
0	5438	-0.025178780779242516
0	5218	-0.03780761733651161
0	5048	-0.028483346104621887
0	4926	-0.020124929025769234
0	4834	-0.01518101617693901
0	4802	-0.005322923883795738
0	4804	0.00033627386437729
0	4848	0.007484180852770805
0	4890	0.007224604953080416
0	4938	0.008345697075128555
0	5004	0.011589926667511463
0	5046	0.007442234084010124
0	5152	0.018940521404147148
0	5210	0.010438287630677223
0	5262	0.009419379755854607
0	5348	0.015669792890548706
0	5364	0.0029300092719495296
0	5384	0.0036796722561120987
0	5456	0.013301475904881954
0	5408	-0.008899875916540623
0	5444	0.0067000011913478374
0	5446	0.0003735292120836675
0	5466	0.0037477980367839336
0	5442	-0.004511617124080658
0	5446	0.0007546505075879395
0	5442	-0.0007570595480501652
0	5426	-0.003037590067833662
0	5442	0.003046381287276745
0	5474	0.00610554963350296
0	5454	-0.003821850521489978
0	5490	0.006885032635182142
0	5468	-0.004206125624477863
0	5496	0.005344735458493233
0	5500	0.000761363364290446
0	5496	-0.0007586006540805101
0	5502	0.001133158802986145
0	5500	-0.00037606238038279116
0	5536	0.0067397216334939
0	5496	-0.0074565657414495945
0	5528	0.005942874122411013
0	5546	0.0033307017292827368
0	5506	-0.007376897614449263
0	5540	0.00625268230214715
0	5512	-0.005137049127370119
0	5532	0.003662556642666459
0	5524	-0.0014626120682805777
0	5544	0.0036526122130453587
0	5574	0.005472921300679445
0	5546	-0.005102164577692747
0	5564	0.003278170945122838
0	5588	0.004366759210824966
0	5670	0.014906741678714752
0	5700	0.005446293391287327
0	5612	-0.015953203663229942
0	5604	-0.0014488029992207885
0	5540	-0.011579378508031368
0	5442	-0.017720449715852737
0	5466	0.004339283797889948
0	5436	-0.005423320457339287
0	5432	-0.0007232750067487359
0	5450	0.003255169140174985
0	5470	0.003617726732045412
0	5490	0.003617683192715049
0	5512	0.003979595378041267
0	5530	0.0032557970844209194
0	5854	0.05859233811497688
0	6364	0.09203339368104935
1	4840	-0.27359551191329956
0	1244	-0.6482705473899841
0	1936	0.128021702170372
0	4290	0.4453609585762024
0	6068	0.3390713930130005
0	6566	0.09463242441415787
0	6788	0.04191315546631813
0	6766	-0.004120467230677605
0	6704	-0.01152344886213541
0	6626	-0.014392029494047165
0	6512	-0.020895449444651604
0	6446	-0.012028430588543415
0	6364	-0.0148631501942873
0	6266	-0.017677830532193184
0	6206	-0.010779217816889286
0	6142	-0.011461044661700726
0	6130	-0.00214329082518816
0	6054	-0.013532442040741444
0	6020	-0.006037861108779907
0	6004	-0.0028332960791885853
0	5956	-0.008471784181892872
0	5970	0.00246383436024189
0	5930	-0.007017544005066156
0	5924	-0.0010495749302208424
0	5898	-0.004535621963441372
0	5886	-0.002088167006149888
0	5852	-0.005902914330363274
0	5762	-0.01559467613697052
0	5712	-0.008652116172015667
0	5606	-0.018357520923018456
0	5450	-0.027135469019412994
0	5310	-0.024266516789793968
0	5160	-0.025403061881661415
0	5044	-0.01929388754069805
0	4946	-0.01623215340077877
0	4884	-0.010333333164453506
0	4864	-0.0033647753298282623
0	4888	0.004081771709024906
0	4934	0.007907584309577942
0	4964	0.00520996144041419
0	5042	0.013677491806447506
0	5064	0.003891188418492675
0	5132	0.012126111425459385
0	5212	0.014371258206665516
0	5250	0.006869704928249121
0	5292	0.0076368264853954315
0	5346	0.009869622997939587
0	5350	0.000734591914806515
0	5410	0.011066571809351444
0	5408	-0.0003702743852045387
0	5422	0.0026014891918748617
0	5430	0.0014914984349161386
0	5410	-0.0037413013633340597
0	5438	0.00525486096739769
0	5426	-0.0022589510772377253
0	5424	-0.00037761020939797163
0	5452	0.005301958881318569
0	5464	0.0022780196741223335
0	5468	0.0007607744773849845
0	5452	-0.003047812730073929
0	5468	0.003050795756280422
0	5440	-0.005338281858712435
0	5452	0.0022859463933855295
0	5490	0.007225433364510536
0	5462	-0.005308995954692364
0	5492	0.005669720005244017
0	5490	-0.00037653910112567246
0	5516	0.004875853192061186
0	5512	-0.0007471980061382055
0	5498	-0.0026058147195726633
0	5512	0.0025972099974751472
0	5488	-0.004439456854015589
0	5532	0.008117781020700932
0	5520	-0.0022085076197981834
0	5536	0.0029391234274953604
0	5544	0.0014669926604256034
0	5534	-0.0018309205770492554
0	5572	0.006949524395167828
0	5568	-0.0007305402541533113
0	5556	-0.0021895146928727627
0	5570	0.0025521365460008383
0	5552	-0.003278370015323162
0	5558	0.0010919811902567744
0	5532	-0.0047276741825044155
0	5538	0.001090380479581654
0	5558	0.003632137319073081
0	5542	-0.002903354587033391
0	5568	0.004715383984148502
0	5564	-0.0007249878835864365
0	5636	0.013042218051850796
0	5708	0.013027744367718697
0	5682	-0.004697663243860006
0	5630	-0.009381652809679508
0	5556	-0.013336537405848503
0	5470	-0.015493076294660568
0	5456	-0.0025220075622200966
0	5440	-0.002882917644456029
0	5464	0.0043256753124296665
0	5452	-0.0021635135635733604
0	5452	0.0
0	5486	0.006133862305432558
0	5490	0.0007217437378130853
0	5512	0.003969542682170868
0	5528	0.0028872876428067684
0	6174	0.11656862497329712
0	6066	-0.019413752481341362
1	4540	-0.27345383167266846
0	818	-0.6709529757499695
0	2942	0.3941459655761719
0	5272	0.4395120441913605
0	6382	0.20975585281848907
0	6706	0.06091447174549103
0	6754	0.008959569968283176
0	6736	-0.003335021436214447
0	6642	-0.01728767529129982
0	6516	-0.02301706187427044
0	6468	-0.008717551827430725
0	6350	-0.02131117880344391
0	6300	-0.008987847715616226
0	6254	-0.00823251437395811
0	6162	-0.01640455052256584
0	6114	-0.00853586196899414
0	6040	-0.013125842437148094
0	6026	-0.0024772624019533396
0	5996	-0.005293743684887886
0	5948	-0.008443865925073624
0	5958	0.0017540781991556287
0	5922	-0.006295613944530487
0	5936	0.0024417752865701914
0	5918	-0.0031306163873523474
0	5892	-0.0045098173432052135
0	5822	-0.012113381177186966
0	5766	-0.009672182612121105
0	5720	-0.007933405227959156
0	5612	-0.01860572025179863
0	5544	-0.011752641759812832
0	5366	-0.030857063829898834
0	5232	-0.02311912551522255
0	5080	-0.02557544596493244
0	4946	-0.022279614582657814
0	4918	-0.0046638683415949345
0	4846	-0.012091086246073246
0	4858	0.0020363833755254745
0	4918	0.010292300954461098
0	4928	0.0017334027215838432
0	5084	0.02731156162917614
0	5048	-0.006355782505124807
0	5130	0.014599060639739037
0	5172	0.00753210112452507
0	5210	0.006861022207885981
0	5306	0.01744270510971546
0	5314	0.0014611338265240192
0	5350	0.006607282906770706
0	5374	0.00442352844402194
0	5392	0.003330989507958293
0	5436	0.008172868750989437
0	5414	-0.004099429585039616
0	5416	0.0003739389358088374
0	5428	0.0022507314570248127
0	5408	-0.0037631711456924677
0	5424	0.003020197618752718
0	5408	-0.0030291173607110977
0	5446	0.007212998811155558
0	5400	-0.008749239146709442
0	5404	0.0007623501005582511
0	5428	0.004580152686685324
0	5422	-0.00114588369615376
0	5482	0.011454753577709198
0	5468	-0.0026685302145779133
0	5486	0.0034225303679704666
0	5486	0.0
0	5482	-0.0007552584866061807
0	5522	0.007522473577409983
0	5524	0.0003745645808521658
0	5520	-0.0007463057991117239
0	5532	0.0022307042963802814
0	5522	-0.0018537743017077446
0	5528	0.0011090162442997098
0	5528	0.0
0	5544	0.0029437015764415264
0	5550	0.00110163155477494
0	5550	0.0
0	5556	0.0010984048712998629
0	5534	-0.004022427834570408
0	5586	0.00949829537421465
0	5544	-0.007662648800760508
0	5540	-0.0007292970549315214
0	5562	0.004008064977824688
0	5548	-0.0025483272038400173
0	5576	0.005092946346849203
0	5628	0.009448704309761524
0	5716	0.01597038097679615
0	5716	0.0
0	5606	-0.01989341899752617
0	5564	-0.007586248219013214
0	5522	-0.007578947581350803
0	5440	-0.014788631349802017
0	5470	0.00540988938882947
0	5446	-0.0043282234109938145
0	5476	0.0054109953343868256
0	5462	-0.0025252830237150192
0	5474	0.0021648406982421875
0	5502	0.00505153788253665
0	5486	-0.002886940026655793
0	5546	0.010828500613570213
0	6100	0.09996752440929413
0	6574	0.08524055778980255
1	4864	-0.3055863380432129
0	790	-0.7309371829032898
0	1860	0.1975724995136261
0	4288	0.45872485637664795
0	6108	0.3466094434261322
0	6704	0.1131044253706932
0	6808	0.01959405094385147
0	6790	-0.0033643601927906275
0	6762	-0.005194483790546656
0	6622	-0.025778258219361305
0	6544	-0.014267422258853912
0	6436	-0.01963731460273266
0	6360	-0.01374487578868866
0	6308	-0.009360149502754211
0	6224	-0.015058801509439945
0	6174	-0.008936443366110325
0	6126	-0.008555641397833824
0	6080	-0.00817390251904726
0	6066	-0.0024801294784992933
0	6016	-0.008829242549836636
0	6002	-0.00246383436024189
0	5984	-0.0031579318456351757
0	5978	-0.001049342448823154
0	5950	-0.004882642067968845
0	5924	-0.004521057475358248
0	5870	-0.009365460835397243
0	5814	-0.009691711515188217
0	5770	-0.007600534241646528
0	5652	-0.02035699598491192
0	5490	-0.028019925579428673
0	5338	-0.02645563893020153
0	5106	-0.040268924087285995
0	4966	-0.02370818704366684
0	4904	-0.010318429209291935
0	4838	-0.010946725495159626
0	4810	-0.004676904063671827
0	4836	0.0043891239911317825
0	4864	0.004779788199812174
0	4968	0.01795022375881672
0	5024	0.009766305796802044
0	5076	0.00915374793112278
0	5142	0.011719166301190853
0	5200	0.010378146544098854
0	5266	0.011891892179846764
0	5314	0.00870311539620161
0	5352	0.006928069982677698
0	5370	0.003298193449154496
0	5382	0.0022089953999966383
0	5432	0.00924373883754015
0	5420	-0.0022271990310400724
0	5418	-0.00037257358781062067
0	5414	-0.0007478592451661825
0	5404	-0.0018763133557513356
0	5434	0.005649220664054155
0	5414	-0.003778385231271386
0	5420	0.0011371676810085773
0	5392	-0.005321912467479706
0	5410	0.0034304007422178984
0	5442	0.006112469360232353
0	5424	-0.003442867426201701
0	5472	0.00918484479188919
0	5478	0.0011471251491457224
0	5494	0.0030517654959112406
0	5494	0.0
0	5490	-0.0007575566414743662
0	5510	0.0037722561974078417
0	5512	0.0003755727375391871
0	5534	0.004113892558962107
0	5536	0.0003724348498508334
0	5516	-0.0037112636491656303
0	5538	0.004070003982633352
0	5528	-0.001844746177084744
0	5550	0.004048831295222044
0	5528	-0.004040156491100788
0	5552	0.00440038600936532
0	5574	0.004027828574180603
0	5546	-0.005119391717016697
0	5574	0.005113906227052212
0	5554	-0.003648525569587946
0	5548	-0.0010937461629509926
0	5586	0.006921675987541676
0	5684	0.017832446843385696
0	5688	0.0007266649627126753
0	5638	-0.009067717008292675
0	5576	-0.011230120435357094
0	5556	-0.0036190799437463284
0	5464	-0.016634121537208557
0	5456	-0.0014458178775385022
0	5442	-0.002529480494558811
0	5454	0.0021681261714547873
0	5466	0.0021677345503121614
0	5454	-0.002167812781408429
0	5488	0.006143024191260338
0	5512	0.004336409270763397
0	5550	0.006865236442536116
0	5860	0.055985648185014725
0	6514	0.11786332726478577
1	4832	-0.3013148903846741
0	1056	-0.6792833209037781
0	2136	0.19964998960494995
0	4628	0.4704727530479431
0	6174	0.29355543851852417
0	6680	0.0956883504986763
0	6826	0.027414409443736076
0	6792	-0.00633272947743535
0	6710	-0.015156369656324387
0	6624	-0.015785222873091698
0	6530	-0.01714056357741356
0	6456	-0.013415681198239326
0	6334	-0.021997835487127304
0	6274	-0.01076773926615715
0	6216	-0.010366152040660381
0	6114	-0.018172532320022583
0	6092	-0.003909674473106861
0	6054	-0.006734961178153753
0	6030	-0.004241681657731533
0	6012	-0.0031724025029689074
0	5962	-0.008783949539065361
0	5974	0.002101919613778591
0	5952	-0.003841587109491229
0	5920	-0.005571612622588873
0	5900	-0.003473106771707535
0	5828	-0.012470987625420094
0	5780	-0.008297703228890896
0	5714	-0.011391749605536461
0	5602	-0.019313231110572815
0	5472	-0.022450437769293785
0	5312	-0.02779804728925228
0	5114	-0.034304723143577576
0	4980	-0.022684693336486816
0	4878	-0.016994712874293327
0	4868	-0.0016638380475342274
0	4846	-0.0036871510092169046
0	4862	0.002709323540329933
0	4892	0.005136927589774132
0	4956	0.011078925803303719
0	5034	0.013640496879816055
0	5058	0.004236340988427401
0	5160	0.018161745741963387
0	5226	0.011842813342809677
0	5274	0.008670415729284286
0	5350	0.013811318203806877
0	5376	0.004749841522425413
0	5410	0.006239371839910746
0	5412	0.00036855944199487567
0	5418	0.0011100558331236243
0	5432	0.0025999429635703564
0	5404	-0.0052186232060194016
0	5432	0.005236777476966381
0	5430	-0.00037532372516579926
0	5410	-0.003765532746911049
0	5434	0.004533148370683193
0	5418	-0.0030309921130537987
0	5444	0.004938146565109491
0	5450	0.0011420015944167972
0	5446	-0.0007626116857863963
0	5484	0.007252001203596592
0	5470	-0.002671585651114583
0	5472	0.0003812719078268856
0	5486	0.002662845654413104
0	5470	-0.003033520421013236
0	5478	0.0015111066168174148
0	5486	0.0015053250826895237
0	5500	0.002623786684125662
0	5500	0.0
0	5506	0.001115794642828405
0	5532	0.004818681627511978
0	5530	-0.0003695309569593519
0	5542	0.0022107590921223164
0	5530	-0.0022055848967283964
0	5552	0.004036055412143469
0	5536	-0.002930331276729703
0	5522	-0.002561131725087762
0	5576	0.009869863279163837
0	5558	-0.0032866306137293577
0	5558	0.0
0	5562	0.0007290932699106634
0	5526	-0.0065566604025661945
0	5530	0.0007279786514118314
0	5530	0.0
0	5538	0.0014542106073349714
0	5528	-0.0018163544591516256
0	5524	-0.0007261285209096968
0	5562	0.006893799174576998
0	5546	-0.002900582505390048
0	5576	0.005435438826680183
0	5644	0.012310663238167763
0	5686	0.00759631022810936
0	5660	-0.0046963621862232685
0	5606	-0.009742953814566135
0	5564	-0.0075723882764577866
0	5480	-0.015136226080358028
0	5428	-0.009369932115077972
0	5442	0.002523553092032671
0	5412	-0.005409499164670706
0	5458	0.008298954926431179
0	5462	0.0007218566024675965
0	5476	0.0025275626685470343
0	5490	0.002528384095057845
0	5512	0.0039744190871715546
0	5878	0.06612705439329147
0	6382	0.09088177233934402
1	4630	-0.3143239915370941
0	900	-0.6727832555770874
0	3378	0.45988816022872925
0	5576	0.4134998917579651
0	6432	0.1610172688961029
0	6726	0.055002618581056595
0	6764	0.007056376431137323
0	6754	-0.0018428650218993425
0	6648	-0.019388588145375252
0	6564	-0.015261257998645306
0	6490	-0.013360616751015186
0	6358	-0.02369469776749611
0	6306	-0.009290027432143688
0	6218	-0.015650751069188118
0	6158	-0.01063050702214241
0	6120	-0.006712278816848993
0	6044	-0.01339033991098404
0	6030	-0.0024610913824290037
0	5978	-0.009118541143834591
0	5942	-0.006297596264630556
0	5946	0.0006978529272601008
0	5892	-0.009392719715833664
0	5908	0.002775785978883505
0	5858	-0.008649521507322788
0	5802	-0.009665170684456825
0	5772	-0.00516766170039773
0	5690	-0.014100976288318634
0	5646	-0.0075577134266495705
0	5542	-0.017849991098046303
0	5390	-0.02613869495689869
0	5336	-0.009339220821857452
0	5172	-0.028248587623238564
0	5052	-0.020174847915768623
0	4958	-0.01565675064921379
0	4886	-0.012033693492412567
0	4912	0.004383253864943981
0	4906	-0.0010219375835731626
0	4934	0.004819885361939669
0	5006	0.01252478826791048
0	5036	0.0052688270807266235
0	5134	0.01736685447394848
0	5158	0.0042874496430158615
0	5212	0.009716191329061985
0	5272	0.010867071337997913
0	5294	0.004007480572909117
0	5358	0.011719608679413795
0	5376	0.003311542561277747
0	5394	0.003325164085254073
0	5406	0.0022254916839301586
0	5422	0.0029778522439301014
0	5434	0.0022406175266951323
0	5408	-0.004870190750807524
0	5428	0.0037576560862362385
0	5402	-0.0048996820114552975
0	5414	0.0022678880486637354
0	5434	0.003789074718952179
0	5428	-0.0011391539592295885
0	5452	0.004564183764159679
0	5430	-0.004188986960798502
0	5454	0.004573054611682892
0	5444	-0.0019046651432290673
0	5454	0.0019033600110560656
0	5482	0.005319890100508928
0	5468	-0.002652720781043172
0	5488	0.0037774336524307728
0	5502	0.0026342198252677917
0	5480	-0.00412422651425004
0	5510	0.005603845231235027
0	5502	-0.0014890185557305813
0	5520	0.003340013325214386
0	5522	0.0003700049128383398
0	5504	-0.003322095610201359
0	5522	0.0033150394447147846
0	5544	0.0040440186858177185
0	5520	-0.0044043161906301975
0	5552	0.005864314269274473
0	5528	-0.0043930294923484325
0	5538	0.0018287331331521273
0	5532	-0.0010962774977087975
0	5520	-0.0021908737253397703
0	5544	0.004379136022180319
0	5524	-0.003646839875727892
0	5540	0.0029154163785278797
0	5528	-0.0021850760094821453
0	5532	0.0007278020493686199
0	5564	0.0058182524517178535
0	5518	-0.0083571532741189
0	5620	0.018520984798669815
0	5676	0.010158054530620575
0	5682	0.0010867464588955045
0	5644	-0.006873266771435738
0	5552	-0.016620498150587082
0	5522	-0.00541653111577034
0	5446	-0.013718577101826668
0	5444	-0.00036106296465732157
0	5446	0.0003611585998442024
0	5442	-0.0007225607405416667
0	5474	0.005781808868050575
0	5468	-0.0010843243217095733
0	5508	0.007230309769511223
0	5516	0.001446166425012052
0	5804	0.052063874900341034
0	6740	0.16890226304531097
1	5260	-0.2651252746582031
0	1538	-0.6678869128227234
0	1138	-0.07352850586175919
0	3814	0.5055797696113586
0	5804	0.3800756335258484
0	6588	0.14948520064353943
0	6810	0.04204651713371277
0	6840	0.005636060610413551
0	6770	-0.013044936582446098
0	6730	-0.007396996486932039
0	6632	-0.017990674823522568
0	6560	-0.013128942809998989
0	6416	-0.026094835251569748
0	6354	-0.011177750304341316
0	6272	-0.014709575101733208
0	6202	-0.012508189305663109
0	6126	-0.013537906110286713
0	6092	-0.00604050699621439
0	6042	-0.00885959342122078
0	5992	-0.008834026753902435
0	5986	-0.0010571569437161088
0	5950	-0.006322888657450676
0	5950	0.0
0	5934	-0.00279365386813879
0	5912	-0.0038303059991449118
0	5882	-0.005209901370108128
0	5780	-0.017671313136816025
0	5752	-0.004843341186642647
0	5632	-0.02072896808385849
0	5562	-0.012103886343538761
0	5448	-0.019846796989440918
0	5298	-0.02608574740588665
0	5152	-0.02484852634370327
0	4986	-0.027623390778899193
0	4898	-0.014549141749739647
0	4816	-0.013625185936689377
0	4824	0.001342462026514113
0	4852	0.004751400090754032
0	4886	0.005835173651576042
0	4972	0.014920367859303951
0	5014	0.0073615326546132565
0	5088	0.01309410110116005
0	5152	0.011423811316490173
0	5202	0.008992481976747513
0	5264	0.011228223331272602
0	5300	0.006559527479112148
0	5360	0.01099276915192604
0	5364	0.0007362957112491131
0	5394	0.005546995438635349
0	5412	0.0033415427897125483
0	5402	-0.0018630995182320476
0	5410	0.0014959049876779318
0	5412	0.00037523923674598336
0	5394	-0.003388554323464632
0	5436	0.007933509536087513
0	5414	-0.004168140236288309
0	5418	0.0007600901881232858
0	5402	-0.0030473480001091957
0	5430	0.005344735458493233
0	5430	0.0
0	5408	-0.004208378493785858
0	5466	0.011097646318376064
0	5454	-0.002293607220053673
0	5456	0.0003815337549895048
0	5492	0.006847144104540348
0	5454	-0.0072004240937530994
0	5504	0.00943621713668108
0	5522	0.0033825684804469347
0	5504	-0.003368431469425559
0	5496	-0.0014913316117599607
0	5486	-0.0018581144977360964
0	5520	0.006299173925071955
0	5540	0.0036955371033400297
0	5552	0.002212035935372114
0	5574	0.004046696703881025
0	5540	-0.006242120638489723
0	5528	-0.0021998705342411995
0	5536	0.0014650762313976884
0	5562	0.004756503272801638
0	5582	0.0036551044322550297
0	5636	0.0098585719242692
0	5726	0.016407588496804237
0	5686	-0.007278285454958677
0	5632	-0.009809383191168308
0	5582	-0.00906969141215086
0	5490	-0.016673512756824493
0	5468	-0.003985314629971981
0	5450	-0.0032597279641777277
0	5472	0.003982957918196917
0	5452	-0.003619953291490674
0	5464	0.0021716838236898184
0	5516	0.009407451376318932
0	5476	-0.00723431957885623
0	5534	0.010488373227417469
0	5672	0.024943366646766663
0	6502	0.14985917508602142
0	5954	-0.09832300245761871
1	4280	-0.2995454967021942
0	696	-0.6461071968078613
0	2828	0.3957822918891907
0	5492	0.5028439164161682
0	6536	0.197053000330925
0	6838	0.05663986876606941
0	6838	0.0
0	6794	-0.008120977319777012
0	6682	-0.020517580211162567
0	6560	-0.02219473198056221
0	6502	-0.010485970415174961
0	6404	-0.017615128308534622
0	6334	-0.012519076466560364
0	6240	-0.01673630252480507
0	6174	-0.01170904841274023
0	6150	-0.0042465850710868835
0	6086	-0.0112933199852705
0	6058	-0.00492766872048378
0	6016	-0.007370920851826668
0	5994	-0.0038491145242005587
0	5992	-0.00034884936758317053
0	5958	-0.005911809392273426
0	5948	-0.0017338836332783103
0	5910	-0.006569923833012581
0	5842	-0.011726564727723598
0	5812	-0.005163807421922684
0	5718	-0.016148798167705536
0	5672	-0.007894285023212433
0	5544	-0.021966706961393356
0	5412	-0.022777995094656944
0	5254	-0.027349835261702538
0	5078	-0.03029537945985794
0	4972	-0.01779857464134693
0	4884	-0.014600962400436401
0	4820	-0.010654709301888943
0	4830	0.0016808041837066412
0	4838	0.0013599428348243237
0	4924	0.01478696521371603
0	4940	0.0027808675076812506
0	5038	0.0172064658254385
0	5090	0.009212018921971321
0	5152	0.011075911112129688
0	5224	0.01295896340161562
0	5260	0.006522920913994312
0	5332	0.013123518787324429
0	5372	0.0073283337987959385
0	5380	0.0014726635999977589
0	5430	0.009244195185601711
0	5420	-0.0018560221651569009
0	5430	0.0018628912512212992
0	5418	-0.0022433260455727577
0	5440	0.004127528052777052
0	5444	0.0007528986898250878
0	5422	-0.004154078662395477
0	5440	0.003409262979403138
0	5426	-0.002658396027982235
0	5424	-0.00038070097798481584
0	5454	0.005721187684684992
0	5412	-0.008020778186619282
0	5462	0.009556574746966362
0	5466	0.0007642825366929173
0	5476	0.0019081298960372806
0	5494	0.0034259611275047064
0	5484	-0.001897029229439795
0	5500	0.0030237745959311724
0	5488	-0.002258157590404153
0	5488	0.0
0	5512	0.004479561932384968
0	5482	-0.005579042714089155
0	5540	0.010750030167400837
0	5538	-0.00036954457755200565
0	5532	-0.0011055831564590335
0	5546	0.002573687117546797
0	5542	-0.0007338910945691168
0	5574	0.0058610206469893456
0	5596	0.004023507237434387
0	5558	-0.006940216291695833
0	5572	0.0025541542563587427
0	5570	-0.00036456435918807983
0	5572	0.00036423237179405987
0	5594	0.004003105219453573
0	5672	0.01417769305408001
0	5714	0.007623426616191864
0	5648	-0.011960132978856564
0	5616	-0.005790947005152702
0	5522	-0.01699286513030529
0	5454	-0.012285605072975159
0	5426	-0.005057864356786013
0	5452	0.004697380121797323
0	5474	0.003973749000579119
0	5504	0.005418357439339161
0	5486	-0.003250270849093795
0	5550	0.011555822566151619
0	5528	-0.003970975521951914
0	5600	0.01299248170107603
0	6388	0.14211000502109528
1	5374	-0.18188340961933136
0	2008	-0.6041786074638367
0	1346	-0.12136990576982498
0	3688	0.44051262736320496
0	5762	0.3946867883205414
0	6508	0.14176400005817413
0	6734	0.04268338903784752
0	6782	0.008998200297355652
0	6744	-0.007068803068250418
0	6656	-0.016251955181360245
0	6570	-0.01577962376177311
0	6454	-0.021153215318918228
0	6374	-0.014510628767311573
0	6276	-0.017689529806375504
0	6206	-0.012582083232700825
0	6142	-0.011461591348052025
0	6090	-0.00928648840636015
