0	5438	0.005920955445617437
0	5414	-0.004436721559613943
0	5432	0.0033252048306167126
0	5302	-0.02399970404803753
0	5338	0.00664803571999073
0	5854	0.09528616815805435
0	6836	0.18081606924533844
0	6152	-0.12484182417392731
1	4734	-0.25761520862579346
0	4484	-0.04560323804616928
0	5000	0.0946325957775116
0	5400	0.07353392243385315
0	5426	0.004779352806508541
0	5508	0.015070573426783085
0	5530	0.004040700849145651
0	5524	-0.001101227244362235
0	5566	0.00770406611263752
0	5524	-0.007695972453802824
0	5530	0.0010986328125
0	5536	0.0010979091748595238
0	5582	0.008412069641053677
0	5578	-0.0007307360065169632
0	5588	0.0018249729182571173
0	5624	0.0065644714049994946
0	5670	0.008381720632314682
0	5724	0.009832722134888172
0	5812	0.01600252091884613
0	5860	0.008709326386451721
0	5910	0.00904879067093134
0	5934	0.004329993389546871
0	5986	0.009351956658065319
0	5904	-0.014699027873575687
0	5726	-0.03181450068950653
0	5528	-0.035327281802892685
0	5260	-0.04775254428386688
0	5070	-0.03387010470032692
0	4962	-0.019342591986060143
0	4934	-0.005071483552455902
0	4966	0.005838918499648571
0	4952	-0.0025509274564683437
0	5060	0.0196228064596653
0	5040	-0.0036325331311672926
0	5116	0.01383377704769373
0	5152	0.00656518992036581
0	5194	0.007675999775528908
0	5212	0.0032964618876576424
0	5238	0.0047706421464681625
0	5272	0.00625107204541564
0	5312	0.007365578319877386
0	5322	0.0018438617698848248
0	5348	0.0048003545962274075
0	5356	0.0014791622525081038
0	5384	0.005184161011129618
0	5368	-0.0029661122243851423
0	5388	0.003713514655828476
0	5426	0.007068013772368431
0	5368	-0.010807991027832031
0	5400	0.0059795198030769825
0	5416	0.0029983508866280317
0	5408	-0.0015038159908726811
0	5450	0.007921140640974045
0	5406	-0.008326394483447075
0	5418	0.0022779908031225204
0	5406	-0.0022824392654001713
0	5420	0.0026649069041013718
0	5442	0.004183464217931032
0	5454	0.002276521408930421
0	5462	0.0015129736857488751
0	5422	-0.007539771962910891
0	5428	0.0011277347803115845
0	5420	-0.0014991754433140159
0	5416	-0.0007479058695025742
0	5488	0.013430831953883171
0	5532	0.008188788779079914
0	5572	0.007426845375448465
0	5542	-0.005557133350521326
0	5476	-0.01220083236694336
0	5488	0.0022150848526507616
0	5422	-0.012166795320808887
0	5414	-0.0014737669844180346
0	5422	0.0014729347312822938
0	5406	-0.002944532549008727
0	5390	-0.0029436293989419937
0	5256	-0.024651991203427315
0	5324	0.01251856330782175
0	5862	0.0990828424692154
0	7104	0.22812709212303162
0	6516	-0.10686633735895157
1	4668	-0.3336101472377777
0	4292	-0.06818428635597229
0	4838	0.09968475997447968
0	5284	0.0817318856716156
0	5402	0.02164025977253914
0	5484	0.015039617195725441
0	5496	0.0021998705342411995
0	5528	0.005863598082214594
0	5524	-0.0007325649494305253
0	5558	0.006224142387509346
0	5542	-0.002927293535321951
0	5530	-0.002193864667788148
0	5558	0.00511583685874939
0	5574	0.0029208806809037924
0	5550	-0.004377112258225679
0	5642	0.01677260920405388
0	5652	0.0018218918703496456
0	5768	0.02112368308007717
0	5796	0.0050918348133563995
0	5852	0.010163954459130764
0	5918	0.011952624656260014
0	5922	0.0007222389103844762
0	5948	0.004680243320763111
0	5894	-0.00968992244452238
0	5728	-0.02970084361732006
0	5510	-0.03892625495791435
0	5224	-0.050991300493478775
0	5074	-0.026759590953588486
0	5012	-0.011112703941762447
0	4974	-0.006897218991070986
0	4988	0.0025650106836110353
0	4994	0.00109714618884027
0	5066	0.013109659776091576
0	5114	0.008727695792913437
0	5152	0.0069165523163974285
0	5176	0.00437498465180397
0	5202	0.004748453386127949
0	5264	0.011343538761138916
0	5278	0.0025655748322606087
0	5324	0.00844243261963129
0	5318	-0.0011027654400095344
0	5318	0.0
0	5350	0.005897168070077896
0	5366	0.002952356357127428
0	5376	0.0018475863616913557
0	5378	0.0003699137014336884
0	5370	-0.0014820669312030077
0	5398	0.005196283105760813
0	5348	-0.009300364181399345
0	5404	0.010445422492921352
0	5372	-0.005985485389828682
0	5414	0.007882784120738506
0	5442	0.005271944683045149
0	5434	-0.0015110685490071774
0	5454	0.0037886444479227066
0	5438	-0.0030361684039235115
0	5416	-0.004176633898168802
0	5452	0.006826197728514671
0	5418	-0.006431598216295242
0	5452	0.006415175274014473
0	5410	-0.007900875061750412
0	5422	0.0022514353040605783
0	5536	0.021331535652279854
0	5546	0.0018657180480659008
0	5580	0.006326444447040558
0	5530	-0.009278963319957256
0	5450	-0.014813899993896484
0	5458	0.001479125814512372
0	5418	-0.007386797107756138
0	5426	0.001476087374612689
0	5408	-0.0033191144466400146
0	5380	-0.005160212516784668
0	5380	0.0
0	5236	-0.026523243635892868
0	5348	0.020645668730139732
0	6106	0.13975098729133606
0	7166	0.19455966353416443
0	6488	-0.12309218943119049
1	4640	-0.3333092927932739
0	4322	-0.05760034918785095
0	4886	0.10283088684082031
0	5328	0.0808260589838028
0	5436	0.019759712740778923
0	5482	0.00841648131608963
0	5476	-0.0010974806500598788
0	5542	0.01207066886126995
0	5496	-0.008407559245824814
0	5566	0.012787880375981331
0	5524	-0.007667405065149069
0	5548	0.004378550220280886
0	5534	-0.0025526639074087143
0	5550	0.002915133023634553
0	5598	0.008738606236875057
0	5566	-0.005823546554893255
0	5646	0.014557099901139736
0	5652	0.0010913456790149212
0	5720	0.012359441258013248
0	5812	0.016694288700819016
0	5832	0.0036214389838278294
0	5906	0.013365925289690495
0	5918	0.0021612015552818775
0	5974	0.010054822079837322
0	5890	-0.01502880547195673
0	5722	-0.02996646612882614
0	5516	-0.03663872182369232
0	5276	-0.04264341667294502
0	5094	-0.03249767795205116
0	4952	-0.025671929121017456
0	4968	0.0029196368996053934
0	4994	0.0047349631786346436
0	5048	0.009794200770556927
0	5084	0.006523078307509422
0	5098	0.0025404966436326504
0	5166	0.012364835478365421
0	5212	0.008380499668419361
0	5254	0.007664047181606293
0	5280	0.004752736072987318
0	5302	0.004026845563203096
0	5318	0.0029333399143069983
0	5340	0.00403842655941844
0	5344	0.0007351950043812394
0	5388	0.008096570149064064
0	5386	-0.0003683919785544276
0	5394	0.0014754885341972113
0	5390	-0.0007385251228697598
0	5384	-0.0011095359222963452
0	5412	0.0051864017732441425
0	5382	-0.005567446351051331
0	5426	0.008187366649508476
0	5404	-0.004104018211364746
0	5420	0.002994086593389511
0	5400	-0.0037542704958468676
0	5424	0.004521363414824009
0	5434	0.0018894304521381855
0	5426	-0.0015142911579459906
0	5424	-0.0003787878667935729
0	5442	0.0034059088211506605
0	5482	0.007552109658718109
0	5556	0.013924955390393734
0	5540	-0.002999737625941634
0	5572	0.005979073233902454
0	5486	-0.016016487032175064
0	5454	-0.00594478752464056
0	5434	-0.003707319498062134
0	5430	-0.0007402381161227822
0	5448	0.0033265980891883373
0	5426	-0.0040609887801110744
0	5418	-0.0014753977302461863
0	5350	-0.012531944550573826
0	5270	-0.014740565791726112
0	5650	0.07004780322313309
0	6722	0.19723768532276154
0	6628	-0.017154745757579803
1	5396	-0.22315068542957306
0	4234	-0.2104691118001938
0	4698	0.08463343232870102
0	5224	0.09634405374526978
0	5414	0.03484107553958893
0	5498	0.015400410629808903
0	5516	0.003298636758700013
0	5534	0.003296381328254938
0	5530	-0.0007320197182707489
0	5534	0.0007314397371374071
0	5552	0.003289273241534829
0	5568	0.0029216986149549484
0	5590	0.004013866186141968
0	5618	0.005103404633700848
0	5602	-0.002913116244599223
0	5662	0.010916235856711864
0	5652	-0.0018182039493694901
0	5688	0.006541093811392784
0	5728	0.007262779865413904
0	5768	0.00725215720012784
0	5858	0.016286447644233704
0	5910	0.009385942481458187
0	5934	0.004319498781114817
0	5928	-0.0010767353232949972
0	5764	-0.02934265322983265
0	5590	-0.031067730858922005
0	5324	-0.047426603734493256
0	5140	-0.032795846462249756
0	5040	-0.01787799969315529
0	4992	-0.008668328635394573
0	5018	0.00474204495549202
0	5020	0.0003656128828879446
0	5046	0.0047303116880357265
0	5118	0.013071736320853233
0	5100	-0.0032700321171432734
0	5178	0.014197133481502533
0	5214	0.006565270014107227
0	5222	0.0014616320841014385
0	5286	0.011715318076312542
0	5308	0.004033145494759083
0	5344	0.006608819123357534
0	5322	-0.00404386967420578
0	5346	0.004418153781443834
0	5372	0.004793510306626558
0	5352	-0.003692898666486144
0	5366	0.0025890127290040255
0	5386	0.003705350449308753
0	5372	-0.0025980130303651094
0	5388	0.002974972827360034
0	5374	-0.002608598442748189
0	5428	0.010086419060826302
0	5418	-0.001872869674116373
0	5400	-0.0033815517090260983
0	5432	0.006031817756593227
0	5430	-0.00037816716940142214
0	5450	0.0037896493449807167
0	5424	-0.004930904135107994
0	5398	-0.004927788861095905
0	5470	0.013623978942632675
0	5496	0.0049064625054597855
0	5558	0.011663051322102547
0	5572	0.002624704735353589
0	5462	-0.020551783964037895
0	5448	-0.0026089223101735115
0	5420	-0.005207170732319355
0	5410	-0.0018560221651569009
0	5436	0.0048187412321567535
0	5418	-0.003331482410430908
0	5422	0.0007394353160634637
0	5290	-0.024380933493375778
0	5222	-0.01256126631051302
0	5532	0.0573076494038105
0	6860	0.24518130719661713
0	6542	-0.05816860496997833
1	5034	-0.2738896608352661
0	4164	-0.15831807255744934
0	4702	0.09862149506807327
0	5234	0.09793093800544739
0	5374	0.02579314075410366
0	5428	0.009949637576937675
0	5484	0.01031472161412239
0	5502	0.003314306726679206
0	5544	0.0077293976210057735
0	5536	-0.0014709667302668095
0	5540	0.0007350148516707122
0	5540	0.0
0	5566	0.00477175135165453
0	5570	0.0007334784022532403
0	5612	0.007693434599786997
0	5638	0.004758477210998535
0	5686	0.008777276612818241
0	5742	0.010232172906398773
0	5764	0.004015624523162842
0	5832	0.01238916628062725
0	5920	0.015995733439922333
0	5898	-0.003986855503171682
0	5948	0.00903440359979868
0	5914	-0.006124507635831833
0	5746	-0.03017241321504116
0	5562	-0.032982002943754196
0	5306	-0.04581354930996895
0	5152	-0.027545910328626633
0	4988	-0.02940121851861477
0	4982	-0.001087823649868369
0	5000	0.003294531023129821
0	4998	-0.00036613494739867747
0	5060	0.011292711831629276
0	5094	0.006179346237331629
0	5134	0.007275990676134825
0	5166	0.005829275120049715
0	5184	0.0032841921783983707
0	5268	0.015354244969785213
0	5250	-0.003294892841950059
0	5308	0.010635956190526485
0	5320	0.0022036139853298664
0	5346	0.004780935123562813
0	5362	0.0029456166084855795
0	5378	0.0029493088368326426
0	5394	0.002952792216092348
0	5384	-0.0018479733262211084
0	5396	0.0022210432216525078
0	5412	0.0029666987247765064
0	5384	-0.005202333442866802
0	5416	0.00595954991877079
0	5392	-0.0044812350533902645
0	5416	0.0044960095547139645
0	5430	0.002630589995533228
0	5426	-0.0007540435763075948
0	5482	0.010589079931378365
0	5460	-0.004166929982602596
0	5458	-0.0003790559130720794
0	5482	0.0045443070121109486
0	5452	-0.005668576806783676
0	5436	-0.0030144318006932735
0	5540	0.01953810080885887
0	5580	0.007489327806979418
0	5608	0.005223555490374565
0	5590	-0.0033465956803411245
0	5550	-0.0074140895158052444
0	5480	-0.012941394001245499
0	5436	-0.008118879981338978
0	5452	0.002947751199826598
0	5454	0.00036805300624109805
0	5456	0.00036759302020072937
0	5432	-0.004407119937241077
0	5340	-0.016882386058568954
0	5282	-0.010643634013831615
0	5690	0.07490911334753036
0	6918	0.22503207623958588
0	6936	0.0032680926378816366
1	5584	-0.2431858777999878
0	4202	-0.2483021467924118
0	4756	0.10026302188634872
0	5272	0.09374091774225235
0	5408	0.024728471413254738
0	5434	0.004727043677121401
0	5508	0.013452425599098206
0	5508	0.0
0	5498	-0.0018161344341933727
0	5556	0.0105325598269701
0	5524	-0.005807693116366863
0	5568	0.007982390001416206
0	5580	0.0021758838556706905
0	5562	-0.0032613028306514025
0	5614	0.009414377622306347
0	5614	0.0
0	5678	0.011579378508031368
0	5758	0.014468115754425526
0	5772	0.00252935872413218
0	5862	0.01623845286667347
0	5888	0.004680355545133352
0	5934	0.008258230984210968
0	5932	-0.000358020857675001
0	5930	-0.0003570026019588113
0	5754	-0.03132787346839905
0	5484	-0.04796816408634186
0	5246	-0.042247023433446884
0	5076	-0.030182871967554092
0	4980	-0.01710660755634308
0	4978	-0.0003605379315558821
0	4964	-0.002553812460973859
0	5014	0.0091552734375
0	5054	0.007288098800927401
0	5070	0.0029099725652486086
0	5158	0.016024474054574966
0	5202	0.00802441406995058
0	5246	0.008035747334361076
0	5256	0.001829223707318306
0	5256	0.0
0	5294	0.006972050294280052
0	5310	0.002940311562269926
0	5350	0.007360427640378475
0	5340	-0.001842570723965764
0	5342	0.0003690581361297518
0	5370	0.005173815414309502
0	5370	0.0
0	5386	0.0029653790406882763
0	5354	-0.005941476207226515
0	5366	0.002233638660982251
0	5372	0.0011196397244930267
0	5374	0.000374354247469455
0	5384	0.0018777932273223996
0	5380	-0.0007537120254710317
0	5366	-0.0026471700984984636
0	5376	0.0018975811544805765
0	5422	0.008749794214963913
0	5352	-0.013320139609277248
0	5366	0.0026622379664331675
0	5412	0.008731303736567497
0	5460	0.009086091071367264
0	5526	0.012455493211746216
0	5512	-0.002632766729220748
0	5484	-0.0052491468377411366
0	5404	-0.014957372099161148
0	5382	-0.0041047330014407635
0	5390	0.0014905536081641912
0	5356	-0.006327465176582336
0	5382	0.004835349973291159
0	5358	-0.004459916613996029
0	5276	-0.01522842701524496
0	5222	-0.010029593482613564
0	5504	0.05240531638264656
0	6812	0.24283981323242188
0	6838	0.004783515352755785
1	5640	-0.21840588748455048
0	4078	-0.2842997908592224
0	4576	0.09135714918375015
0	5134	0.10287357866764069
0	5332	0.036552947014570236
0	5378	0.008493876084685326
0	5442	0.011817130260169506
0	5468	0.00479870056733489
0	5486	0.003320461604744196
0	5482	-0.0007373996777459979
0	5478	-0.0007368744118139148
0	5522	0.008100545033812523
0	5532	0.0018399037653580308
0	5494	-0.0069839246571063995
0	5564	0.0128550436347723
0	5544	-0.0036694554146379232
0	5606	0.01136947050690651
0	5652	0.008431291207671165
0	5700	0.008790350519120693
0	5772	0.013168161734938622
0	5810	0.006934306584298611
0	5846	0.006552285049110651
0	5862	0.0029040921945124865
0	5846	-0.002895228797569871
0	5780	-0.011909488588571548
0	5522	-0.046437397599220276
0	5332	-0.034147683531045914
0	5094	-0.042746298015117645
0	4970	-0.02232598327100277
0	4970	0.0
0	4914	-0.010312316007912159
0	5004	0.01664755307137966
0	5010	0.0011035362258553505
0	5026	0.0029349541291594505
0	5104	0.014317356050014496
0	5116	0.002205747179687023
0	5166	0.009205390699207783
0	5202	0.006639126688241959
0	5234	0.005911111831665039
0	5276	0.007770391181111336
0	5248	-0.00518685020506382
0	5300	0.009646421298384666
0	5308	0.0014861049130558968
0	5342	0.006324718240648508
0	5370	0.0052135055884718895
0	5350	-0.003728421637788415
0	5362	0.0022397530265152454
0	5360	-0.0003738597151823342
0	5370	0.0018727058777585626
0	5390	0.0037531431298702955
0	5386	-0.0007524265674874187
0	5426	0.007544322870671749
0	5398	-0.005295007489621639
0	5422	0.004551891703158617
0	5438	0.00304275075905025
0	5382	-0.010672765783965588
0	5446	0.012208303436636925
0	5482	0.006862197071313858
0	5542	0.011408868245780468
0	5574	0.006062749307602644
0	5502	-0.013589350506663322
0	5470	-0.006017450708895922
0	5414	-0.010499868541955948
0	5406	-0.0014962033601477742
0	5408	0.0003731668402906507
0	5402	-0.0011173877865076065
0	5434	0.005948839709162712
0	5392	-0.007794907316565514
0	5240	-0.02817702107131481
0	5452	0.03929807245731354
0	6274	0.15220719575881958
0	6956	0.12548913061618805
1	6016	-0.1712224930524826
0	4210	-0.32755765318870544
0	4586	0.0686657652258873
0	5256	0.12294330447912216
0	5432	0.032314132899045944
0	5496	0.011745561845600605
0	5538	0.007701617665588856
0	5528	-0.0018318373477086425
0	5556	0.005124825984239578
0	5544	-0.002194078406319022
0	5574	0.00548125384375453
0	5582	0.0014601026196032763
0	5550	-0.0058347312733531
0	5614	0.011661523953080177
0	5622	0.0014556393725797534
0	5650	0.005089305341243744
0	5692	0.0076261949725449085
0	5718	0.004716695751994848
0	5806	0.015950312837958336
0	5830	0.0043421098962426186
0	5910	0.01444234512746334
0	5972	0.011159509420394897
0	5938	-0.006099019665271044
0	5916	-0.003933957312256098
0	5772	-0.025670889765024185
0	5562	-0.03736167401075363
0	5356	-0.036613110452890396
0	5174	-0.03232529014348984
0	5072	-0.01814623735845089
0	5032	-0.0071672601625323296
0	5034	0.0003625290119089186
0	5066	0.005835085641592741
0	5100	0.0061676884070038795
0	5158	0.010488751344382763
0	5180	0.0039808438159525394
0	5200	0.0036244576331228018
0	5222	0.003994045313447714
0	5260	0.0069120232947170734
0	5304	0.00801642145961523
0	5330	0.004744236823171377
0	5354	0.004385003354400396
0	5412	0.010611308738589287
0	5354	-0.01062232069671154
0	5426	0.013202127069234848
0	5372	-0.009912986308336258
0	5408	0.006618782412260771
0	5434	0.004787331912666559
0	5416	-0.0033195633441209793
0	5458	0.007760053966194391
0	5434	-0.004443841055035591
0	5464	0.005568411201238632
0	5456	-0.0014890185557305813
0	5450	-0.001120350556448102
0	5474	0.004495055414736271
0	5482	0.0015024978201836348
0	5484	0.00037630769656971097
0	5480	-0.0007529836730100214
0	5456	-0.004514389671385288
0	5482	0.004881956614553928
0	5514	0.005993182770907879
0	5604	0.0168052576482296
0	5606	0.0003721299290191382
0	5572	-0.006305092014372349
0	5522	-0.009245219640433788
0	5488	-0.00627267686650157
0	5506	0.003314550733193755
0	5456	-0.009189825505018234
0	5456	0.0
0	5510	0.009898933582007885
0	5442	-0.012449651956558228
0	5328	-0.02085721865296364
0	5304	-0.004391689784824848
0	5978	0.12341459095478058
0	7232	0.22874584794044495
0	6506	-0.1309933364391327
1	4794	-0.306806355714798
0	4330	-0.08345924317836761
0	4846	0.09343086928129196
0	5336	0.08902940154075623
0	5458	0.022182893007993698
0	5460	0.0003636011097114533
0	5552	0.01672605611383915
0	5538	-0.002543789567425847
0	5548	0.00181602465454489
0	5584	0.006534761283546686
0	5544	-0.007256367709487677
0	5602	0.010517916642129421
0	5594	-0.0014496779767796397
0	5622	0.00506964698433876
0	5632	0.001809059758670628
0	5664	0.005784875247627497
0	5726	0.011204144917428493
0	5742	0.0028893037233501673
0	5828	0.0155141307041049
0	5876	0.008643146604299545
0	5912	0.00646729813888669
0	5970	0.010394264943897724
0	5974	0.0007146515417844057
0	5924	-0.008905671536922455
0	5790	-0.02380867674946785
0	5486	-0.05390262231230736
0	5266	-0.03897207975387573
0	5116	-0.026577837765216827
0	5012	-0.018521595746278763
0	5008	-0.0007218826212920249
0	5020	0.002185341203585267
0	5066	0.008365664631128311
0	5100	0.006155851297080517
0	5134	0.006146430037915707
0	5172	0.006877911277115345
0	5204	0.005801936611533165
0	5254	0.009079573675990105
0	5282	0.005093749612569809
0	5302	0.0036440494004637003
0	5348	0.008393853902816772
0	5354	0.001096424413844943
0	5404	0.009147456847131252
0	5342	-0.011356559582054615
0	5402	0.011007154360413551
0	5388	-0.00257179606705904
0	5434	0.008462831377983093
0	5422	-0.0022108133416622877
0	5424	0.0003691580786835402
0	5414	-0.0018494088435545564
0	5416	0.00037082817289046943
0	5436	0.0037188546266406775
0	5442	0.0011189576471224427
0	5412	-0.00561321247369051
0	5454	0.007886139675974846
0	5430	-0.0045196604914963245
0	5428	-0.0003774914366658777
0	5458	0.005664438474923372
0	5416	-0.007920642383396626
0	5470	0.010164514183998108
0	5540	0.013138466514647007
0	5576	0.006734510418027639
0	5598	0.004101315047591925
0	5500	-0.018209295347332954
0	5512	0.002224199241027236
0	5450	-0.01146492175757885
0	5470	0.003692034864798188
0	5480	0.0018430009949952364
0	5448	-0.005889425985515118
0	5478	0.005515719763934612
0	5382	-0.01763128489255905
0	5250	-0.024237973615527153
0	5602	0.06467576324939728
0	6654	0.19305822253227234
0	7038	0.06990884989500046
1	5382	-0.29851824045181274
0	4126	-0.22642052173614502
0	4626	0.0908496230840683
0	5264	0.11648570746183395
0	5390	0.023027436807751656
0	5492	0.01864398643374443
0	5524	0.005846385844051838
0	5530	0.0010956103214994073
0	5562	0.005840126425027847
0	5528	-0.00619947724044323
0	5580	0.009477291256189346
0	5576	-0.0007283586892299354
0	5566	-0.0018192622810602188
0	5606	0.007272286340594292
0	5608	0.00036319612991064787
0	5664	0.010161004029214382
0	5684	0.003626210382208228
0	5712	0.00507338298484683
0	5768	0.010139784775674343
0	5848	0.01446201279759407
0	5914	0.011907053180038929
0	5956	0.007556131575256586
0	5944	-0.002152620814740658
0	5970	0.004651107359677553
0	5826	-0.025680044665932655
0	5554	-0.04840661212801933
0	5332	-0.03946807235479355
0	5134	-0.03518415614962578
0	5072	-0.011047886684536934
0	5016	-0.01007339172065258
0	5020	0.0007283586892299354
0	5050	0.005474718753248453
0	5068	0.0032664716709405184
0	5104	0.006515522487461567
0	5152	0.008695757947862148
0	5206	0.0097968066111207
0	5216	0.0018173666903749108
0	5280	0.011652888730168343
0	5292	0.0021882369183003902
0	5314	0.004018362611532211
0	5348	0.006218298804014921
0	5332	-0.0029304029885679483
0	5386	0.009904864244163036
0	5362	-0.004407011903822422
0	5372	0.001839001546613872
0	5394	0.004051664844155312
0	5376	-0.0033205023501068354
0	5408	0.005914316046983004
0	5424	0.002962706843391061
0	5402	-0.004082390107214451
0	5424	0.004093683324754238
0	5444	0.00373287545517087
0	5450	0.0011234412668272853
0	5448	-0.00037563859950751066
0	5400	-0.009044885635375977
0	5458	0.010958559811115265
0	5484	0.004915429279208183
0	5564	0.015109925530850887
0	5586	0.004144010599702597
0	5558	-0.00525722885504365
0	5500	-0.010853157378733158
0	5422	-0.014552056789398193
0	5428	0.0011168053606525064
0	5432	0.0007428776589222252
0	5428	-0.0007413722923956811
0	5434	0.0011101653799414635
0	5418	-0.0029562837444245815
0	5314	-0.01919196918606758
0	5298	-0.002951993141323328
0	5842	0.1003640666604042
0	7030	0.21846802532672882
0	6628	-0.07317162305116653
1	4900	-0.31207484006881714
0	4202	-0.12642790377140045
0	4756	0.10105309635400772
0	5332	0.10546102374792099
0	5432	0.018316136673092842
0	5470	0.006957753095775843
0	5548	0.014276301488280296
0	5514	-0.006218298804014921
0	5536	0.004020859487354755
0	5556	0.003652834566310048
0	5554	-0.0003650345606729388
0	5600	0.008390486240386963
0	5600	0.0
0	5588	-0.002184147946536541
0	5654	0.012003346346318722
0	5642	-0.002180179813876748
0	5704	0.011258943006396294
0	5726	0.0039922576397657394
0	5814	0.01595281809568405
0	5870	0.010132567957043648
0	5918	0.008661654777824879
0	5936	0.00323857506737113
0	5942	0.0010762718738988042
0	5936	-0.0010729741770774126
0	5746	-0.033876143395900726
0	5466	-0.04982560873031616
0	5268	-0.035202085971832275
0	5066	-0.03591962531208992
0	5022	-0.007860231213271618
0	4984	-0.0068705324083566666
0	4970	-0.0025565794203430414
0	5056	0.015698013827204704
0	5050	-0.0010895488085225224
0	5082	0.0058006043545901775
0	5152	0.012708017602562904
0	5170	0.00327332247979939
0	5236	0.012024047784507275
0	5258	0.004015624523162842
0	5246	-0.002193757565692067
0	5328	0.01501721516251564
0	5310	-0.003301056567579508
0	5358	0.008815966546535492
0	5374	0.0029430158901959658
0	5374	0.0
0	5382	0.0014754885341972113
0	5380	-0.0003694899787660688
0	5384	0.0007401742041110992
0	5422	0.007045560982078314
0	5400	-0.004086687229573727
0	5416	0.002979774959385395
0	5418	0.0003735245845746249
0	5434	0.0029975268989801407
0	5408	-0.00488629937171936
0	5400	-0.0015085231279954314
0	5432	0.006054490339010954
0	5420	-0.002274939091876149
0	5460	0.007585334591567516
0	5524	0.01212182454764843
0	5536	0.0022662889678031206
0	5582	0.00865942146629095
0	5472	-0.020629899576306343
0	5442	-0.005608734674751759
0	5404	-0.007087348494678736
0	5398	-0.0011165975593030453
0	5414	0.002971768146380782
0	5420	0.0011126083554700017
0	5422	0.0003702972026076168
0	5354	-0.012575670145452023
0	5238	-0.021439924836158752
0	5554	0.058408189564943314
0	6750	0.22075653076171875
0	6968	0.03988485783338547
1	5618	-0.24459180235862732
0	4282	-0.24169912934303284
0	4946	0.12092221528291702
0	5334	0.07084687799215317
0	5418	0.01534227840602398
0	5458	0.0073043350130319595
0	5530	0.013144923374056816
0	5498	-0.0058375694788992405
0	5550	0.009481322951614857
0	5560	0.0018218697514384985
0	5544	-0.002912762574851513
0	5544	0.0
0	5562	0.0032712998799979687
0	5612	0.009079793468117714
0	5612	0.0
0	5616	0.0007248740294016898
0	5672	0.010142600163817406
0	5688	0.0028955084271728992
0	5800	0.02025560662150383
0	5838	0.006858875509351492
0	5886	0.008643249981105328
0	5946	0.010772895999252796
0	5938	-0.0014316905289888382
0	5918	-0.003568073036149144
0	5816	-0.018143439665436745
0	5630	-0.03300798684358597
0	5392	-0.04216717928647995
0	5158	-0.04142081364989281
0	5042	-0.020581485703587532
0	4968	-0.013263549655675888
0	5002	0.006167763378471136
0	5016	0.0025491623673588037
0	5044	0.005075712688267231
0	5072	0.005072708707302809
0	5116	0.007984031923115253
0	5170	0.009816516190767288
0	5192	0.004006312694400549
0	5206	0.0025547132827341557
0	5248	0.007677776739001274
0	5284	0.006593084894120693
0	5304	0.0036690065171569586
0	5324	0.003674399107694626
0	5318	-0.0011038068914785981
0	5368	0.009212174452841282
0	5382	0.00258327997289598
0	5378	-0.000739125651307404
0	5386	0.001480421400628984
0	5372	-0.002595315920189023
0	5406	0.006315242033451796
0	5392	-0.0026067527942359447
0	5384	-0.0014937077648937702
0	5430	0.008615737780928612
0	5414	-0.003006463870406151
0	5432	0.0033934093080461025
0	5442	0.0018910025246441364
0	5382	-0.011372826062142849
0	5466	0.015946945175528526
0	5476	0.001897557289339602
0	5554	0.014771235175430775
0	5602	0.009060706943273544
0	5504	-0.018425438553094864
0	5490	-0.0026239503640681505
0	5404	-0.016070961952209473
0	5398	-0.0011187212076038122
0	5420	0.004093683324754238
0	5420	0.0
0	5446	0.004821422044187784
0	5384	-0.011479213833808899
0	5350	-0.006288145203143358
0	5560	0.038814134895801544
0	6596	0.1911580115556717
0	6724	0.02343177981674671
1	5330	-0.2530251741409302
0	4346	-0.17859303951263428
0	4788	0.08072076737880707
0	5258	0.0861458033323288
0	5410	0.027880359441041946
0	5462	0.009536618366837502
0	5490	0.005132278427481651
0	5498	0.0014656130224466324
0	5570	0.013181984424591064
0	5522	-0.008778025396168232
0	5546	0.004386552609503269
0	5564	0.0032872711308300495
0	5544	-0.0036495905369520187
0	5606	0.01130671612918377
0	5614	0.001456947298720479
0	5618	0.0007278196862898767
0	5674	0.010180707089602947
0	5718	0.007993314415216446
0	5788	0.012707710266113281
0	5810	0.003987000323832035
0	5886	0.013746698386967182
0	5956	0.01262474525719881
0	5940	-0.0028760081622749567
0	5940	0.0
0	5848	-0.01643463782966137
0	5614	-0.041701316833496094
0	5346	-0.04769532009959221
0	5078	-0.04769645258784294
0	4994	-0.014992504380643368
0	4964	-0.005405989941209555
0	4984	0.0036425006110221148
0	4984	0.0
0	4994	0.0018180274637416005
0	5040	0.008352499455213547
0	5050	0.001818159711547196
0	5106	0.010203957557678223
0	5154	0.008765202015638351
0	5176	0.004025617614388466
0	5246	0.012833989225327969
0	5214	-0.00587860681116581
0	5278	0.011779429391026497
0	5250	-0.005161988083273172
0	5268	0.003324836725369096
0	5314	0.008511267602443695
0	5306	-0.0014828911516815424
0	5326	0.003714296268299222
0	5306	-0.0037210225127637386
0	5316	0.0018647670513018966
0	5324	0.0014955507358536124
0	5300	-0.004499662667512894
0	5346	0.00865192897617817
0	5292	-0.010191114619374275
0	5328	0.006822574883699417
0	5302	-0.004946539178490639
0	5334	0.006112780887633562
0	5398	0.012265706434845924
0	5438	0.0076766591519117355
0	5494	0.010741001926362514
0	5404	-0.017216533422470093
0	5350	-0.010302983224391937
0	5336	-0.002664602594450116
0	5338	0.00037980935303494334
0	5350	0.002273760735988617
0	5332	-0.0034029895905405283
0	5362	0.005661231465637684
0	5340	-0.0041434383019804955
0	5230	-0.0206868015229702
0	5222	-0.0015037782723084092
0	5634	0.07742226123809814
0	6880	0.23357829451560974
0	6466	-0.07680986076593399
1	5072	-0.25674399733543396
0	4174	-0.16557267308235168
0	4702	0.098011314868927
0	5176	0.08832187950611115
0	5358	0.03394002839922905
0	5438	0.014915726147592068
0	5470	0.005961399991065264
0	5472	0.0003722315304912627
0	5492	0.0037189009599387646
0	5524	0.005943168420344591
0	5490	-0.006307665724307299
0	5530	0.007411708123981953
0	5528	-0.0003701236273627728
0	5558	0.005544125102460384
0	5594	0.006643782369792461
0	5594	0.0
0	5636	0.007734331768006086
0	5678	0.00772759597748518
0	5744	0.012122992426156998
0	5802	0.010627901181578636
0	5840	0.006943344604223967
0	5870	0.005464878864586353
0	5912	0.007626749575138092
0	5890	-0.0039809877052903175
0	5784	-0.01912022940814495
0	5516	-0.04821300134062767
0	5316	-0.03591824695467949
0	5132	-0.03302620351314545
0	5026	-0.019083281978964806
0	4998	-0.005097582470625639
0	4972	-0.0047760168090462685
0	5026	0.009925497695803642
0	5044	0.0032913184259086847
0	5082	0.00693388469517231
0	5130	0.008763601072132587
0	5142	0.002193944761529565
0	5202	0.010989547707140446
0	5222	0.0036691862624138594
0	5288	0.012126853689551353
0	5290	0.0003679401706904173
0	5320	0.005527033470571041
0	5346	0.004795101471245289
0	5342	-0.0007385433418676257
0	5368	0.004806033335626125
0	5394	0.004811666440218687
0	5378	-0.002964683109894395
0	5386	0.0014843218959867954
0	5392	0.0011149653000757098
0	5410	0.0033508322667330503
0	5388	-0.0041039674542844296
0	5414	0.004862661007791758
0	5454	0.007500937674194574
0	5426	-0.005264345556497574
0	5428	0.00037717344821430743
0	5416	-0.0022696321830153465
0	5484	0.01289115846157074
0	5572	0.016686050221323967
0	5602	0.005679236724972725
0	5532	-0.01321236602962017
0	5510	-0.004139280878007412
0	5424	-0.016129031777381897
0	5428	0.0007480736821889877
0	5418	-0.0018655091989785433
0	5456	0.007072486914694309
0	5444	-0.002228246768936515
0	5422	-0.004077194724231958
0	5396	-0.004810182843357325
0	5230	-0.030674470588564873
0	5408	0.032890282571315765
0	6038	0.11632344871759415
0	7110	0.19702742993831635
0	6364	-0.13562321662902832
1	4730	-0.29524073004722595
0	4326	-0.07326715439558029
0	4900	0.10475726425647736
0	5342	0.08090990036725998
0	5448	0.01940799504518509
0	5480	0.00585680129006505
0	5548	0.01243902463465929
0	5564	0.0029243684839457273
0	5562	-0.0003651545266620815
0	5602	0.0072965179570019245
0	5566	-0.006560962181538343
0	5586	0.0036418817471712828
0	5612	0.004729910288006067
0	5626	0.0025438510347157717
0	5656	0.005446425173431635
0	5660	0.0007258210680447519
0	5724	0.011609065346419811
0	5782	0.010508514940738678
0	5790	0.0014470733003690839
0	5884	0.016965670511126518
0	5872	-0.0021599051542580128
0	5936	0.011488201096653938
0	5954	0.003221803344786167
0	5934	-0.003568921936675906
0	5766	-0.02988792024552822
0	5516	-0.044378697872161865
0	5304	-0.0375695563852787
0	5116	-0.033336881548166275
0	5030	-0.015333413146436214
0	5028	-0.000361054262612015
0	5028	0.0
0	5094	0.011989681050181389
0	5152	0.010487613268196583
0	5158	0.0010832801926881075
0	5174	0.002891949377954006
0	5222	0.008690194226801395
0	5258	0.006527809426188469
0	5290	0.005812685936689377
0	5294	0.0007277932018041611
0	5342	0.008747736923396587
0	5348	0.0010951969306915998
0	5382	0.006214358378201723
0	5378	-0.00073201087070629
0	5424	0.008430157788097858
0	5420	-0.000733962922822684
0	5398	-0.004042631480842829
0	5424	0.004785334691405296
0	5420	-0.0007375628338195384
0	5428	0.0014784150989726186
0	5454	0.0048155877739191055
0	5444	-0.0018570792162790895
0	5468	0.004468829836696386
0	5462	-0.001120462198741734
0	5416	-0.008616599254310131
0	5478	0.011651361361145973
0	5522	0.008283652365207672
0	5572	0.009412886574864388
0	5604	0.006014133337885141
0	5556	-0.008993703871965408
0	5516	-0.007470212411135435
0	5444	-0.01340565737336874
0	5468	0.004457045346498489
0	5472	0.0007411250262521207
0	5444	-0.005177642218768597
0	5470	0.004799350164830685
0	5452	-0.0033165866043418646
0	5344	-0.01987144909799099
0	5502	0.029055869206786156
0	6052	0.10101257264614105
0	6958	0.1656266748905182
1	5884	-0.1944243311882019
0	4308	-0.284380704164505
0	4798	0.08899274468421936
0	5258	0.08383858948945999
0	5404	0.026636501774191856
0	5462	0.010582654736936092
0	5542	0.014591085724532604
0	5510	-0.005832249764353037
0	5564	0.00983654335141182
0	5582	0.0032761425245553255
0	5562	-0.003637333633378148
0	5580	0.003271260065957904
0	5600	0.0036322688683867455
0	5634	0.00616970332339406
0	5658	0.004349349066615105
0	5652	-0.001086156233213842
0	5742	0.01627957448363304
0	5766	0.0043367743492126465
0	5834	0.012275549583137035
0	5910	0.013696819543838501
0	5932	0.003955506719648838
0	6020	0.015775887295603752
0	5970	-0.008934102021157742
0	5976	0.001068921759724617
0	5836	-0.02486295811831951
0	5556	-0.04961840808391571
0	5342	-0.037899360060691833
0	5110	-0.041087642312049866
0	5018	-0.01633116789162159
0	4966	-0.009287483990192413
0	5008	0.007591458968818188
0	5020	0.002180496696382761
0	5058	0.006875256076455116
0	5096	0.006864492315798998
0	5110	0.0025314928498119116
0	5156	0.008332528173923492
0	5158	0.00036295445170253515
0	5216	0.010550186038017273
0	5234	0.0032800426706671715
0	5222	-0.002191087231040001
0	5264	0.007685645017772913
0	5292	0.005133093800395727
0	5306	0.002571071730926633
0	5300	-0.0011038746451959014
0	5296	-0.0007374268607236445
0	5292	-0.0007390709361061454
0	5290	-0.00037035663262940943
0	5266	-0.004456714261323214
0	5278	0.0022352749947458506
0	5264	-0.0026168550830334425
0	5246	-0.0033781249076128006
0	5250	0.0007539298967458308
0	5228	-0.004166771657764912
0	5250	0.004186382982879877
0	5226	-0.004588091745972633
0	5242	0.003070663660764694
0	5290	0.009230532683432102
0	5348	0.011157279834151268
0	5354	0.0011524425353854895
0	5334	-0.003833229187875986
0	5244	-0.017209071666002274
0	5176	-0.01298288069665432
0	5172	-0.0007629413739778101
0	5132	-0.007623888552188873
0	5174	0.008003251627087593
0	5136	-0.007238095160573721
0	5092	-0.00838201679289341
0	4952	-0.026681235060095787
0	5152	0.03818008303642273
0	5998	0.16158606112003326
0	6798	0.15204885601997375
1	5876	-0.17354966700077057
0	3872	-0.3758392333984375
0	4124	0.04768873751163483
0	4662	0.10257257521152496
0	4970	0.05895940586924553
0	5032	0.011892886832356453
0	5100	0.013065365143120289
0	5104	0.000769368838518858
0	5152	0.009242737665772438
0	5154	0.0003853911184705794
0	5168	0.0026993327774107456
0	5180	0.0023149338085204363
0	5204	0.004631297197192907
0	5216	0.0023163340520113707
0	5220	0.000772161060012877
0	5234	0.0027029463090002537
0	5290	0.01081568282097578
0	5302	0.002318511949852109
0	5378	0.014688828960061073
0	5398	0.0038643856532871723
0	5484	0.016600392758846283
0	5512	0.005394089501351118
0	5556	0.00845795962959528
0	5582	0.0049843438901007175
0	5522	-0.011472421698272228
0	5360	-0.030899520963430405
0	5152	-0.03960597142577171
0	4910	-0.04602160304784775
0	4770	-0.02666497230529785
0	4680	-0.01727646216750145
0	4680	0.0
0	4742	0.012159406207501888
0	4726	-0.0031201655510812998
0	4802	0.014763014391064644
0	4828	0.005045930854976177
0	4878	0.009712635539472103
0	4930	0.01011122390627861
0	4968	0.007397121749818325
0	5042	0.014417643658816814
0	5090	0.009358671493828297
0	5114	0.004681282676756382
0	5172	0.011317073367536068
0	5176	0.0007805284112691879
0	5242	0.012881065718829632
0	5264	0.0042929621413350105
0	5246	-0.0035114185884594917
0	5274	0.005461780820041895
0	5282	0.0015606711385771632
0	5288	0.0011706554796546698
0	5306	0.0035140234977006912
0	5338	0.00625089555978775
0	5356	0.0035194745287299156
0	5382	0.005088859237730503
0	5356	-0.005094642750918865
0	5376	0.0039247493259608746
0	5420	0.008642702363431454
0	5446	0.005105046089738607
0	5506	0.011758251115679741
0	5538	0.006246746517717838
0	5502	-0.006992644630372524
0	5484	-0.0034778129775077105
0	5428	-0.010764124803245068
0	5432	0.0007655014051124454
0	5482	0.009525866247713566
0	5452	-0.005690943915396929
0	5452	0.0
0	5460	0.0015061752637848258
0	5318	-0.02664598450064659
0	5388	0.013106651604175568
0	6046	0.12293703109025955
0	7102	0.19612941145896912
0	6432	-0.12292525172233582
1	4882	-0.2822047173976898
0	4382	-0.09119649976491928
0	5008	0.11477814614772797
0	5458	0.08263754099607468
0	5588	0.023842129856348038
0	5644	0.010250777937471867
0	5678	0.006209969986230135
0	5704	0.004737551789730787
0	5668	-0.006543867755681276
0	5708	0.007256454788148403
0	5726	0.0032584688160568476
0	5718	-0.00144520855974406
0	5746	0.005047227721661329
0	5750	0.0007194331265054643
0	5808	0.010411182418465614
0	5834	0.004656994249671698
0	5876	0.007508134003728628
0	5934	0.010347533971071243
0	6006	0.012812299653887749
0	6040	0.006031577009707689
0	6088	0.008484463207423687
0	6094	0.0010564744006842375
0	6116	0.003859875025227666
0	5992	-0.02167150191962719
0	5760	-0.040419526398181915
0	5516	-0.04243626073002815
0	5294	-0.03856576979160309
0	5228	-0.011471743695437908
0	5174	-0.009430667385458946
0	5172	-0.0003532487025950104
0	5222	0.008897218853235245
0	5258	0.006393104791641235
0	5280	0.003886742750182748
0	5308	0.004938852041959763
0	5382	0.013064202852547169
0	5414	0.0056562419049441814
0	5462	0.0084958765655756
0	5490	0.0049622515216469765
0	5474	-0.0028391615487635136
0	5522	0.008527269586920738
0	5520	-0.00035569467581808567
0	5578	0.010327758267521858
0	5588	0.001782128820195794
0	5584	-0.0007135212072171271
0	5590	0.0010713392402976751
0	5574	-0.0028606164269149303
0	5548	-0.004655716009438038
0	5578	0.0053825173527002335
0	5564	-0.0025172007735818624
0	5582	0.0032449972350150347
0	5596	0.00253085233271122
0	5588	-0.0014505016151815653
0	5614	0.0047285910695791245
0	5614	0.0
0	5598	-0.0029255093540996313
0	5580	-0.0032944506965577602
0	5640	0.010977216064929962
0	5700	0.010954102501273155
0	5726	0.0047331820242106915
0	5718	-0.0014515017392113805
0	5672	-0.008318665437400341
0	5594	-0.01406740304082632
0	5576	-0.003239779733121395
0	5558	-0.003234036499634385
0	5546	-0.002152801025658846
0	5584	0.00681052403524518
0	5576	-0.0014323398936539888
0	5494	-0.014671500772237778
0	5386	-0.01932298019528389
0	5840	0.0812707394361496
0	7106	0.2261979877948761
0	7020	-0.015221957117319107
1	5528	-0.26185545325279236
0	4468	-0.18610204756259918
0	4960	0.08694729954004288
0	5402	0.07840215414762497
0	5530	0.022727809846401215
0	5580	0.008878997527062893
0	5646	0.011720136739313602
0	5654	0.0014199333963915706
0	5652	-0.0003548322129063308
0	5654	0.00035471474984660745
0	5656	0.0003545764193404466
0	5702	0.008153233677148819
0	5710	0.001417216844856739
0	5692	-0.003186630317941308
0	5714	0.0038921977393329144
0	5764	0.00884204637259245
0	5804	0.007070969324558973
0	5794	-0.0017669302178546786
0	5874	0.01412911619991064
0	5934	0.010584251023828983
0	5980	0.008098401129245758
0	6032	0.00913306139409542
0	6022	-0.0017514975043013692
0	6052	0.005239930469542742
0	5942	-0.01916087046265602
0	5712	-0.03997867554426193
0	5488	-0.03888663649559021
0	5256	-0.04025168716907501
0	5142	-0.01984587498009205
0	5096	-0.008100302889943123
0	5092	-0.0007124198600649834
0	5160	0.01214256789535284
0	5154	-0.0010670081246644258
0	5224	0.012434128671884537
0	5224	0.0
0	5256	0.005700509529560804
0	5326	0.012493901886045933
0	5326	0.0
0	5372	0.008242053911089897
0	5396	0.004307405091822147
0	5444	0.008628127165138721
0	5512	0.012238726951181889
0	5476	-0.006486720405519009
0	5538	0.0111872972920537
0	5510	-0.005057011730968952
0	5522	0.0021699557546526194
0	5540	0.00325968861579895
0	5520	-0.0036276571918278933
0	5528	0.0014534706715494394
0	5494	-0.006190222222357988
0	5504	0.0018255282193422318
0	5530	0.00476016104221344
0	5514	-0.0029383318033069372
0	5524	0.001842185971327126
0	5544	0.0036963566672056913
0	5504	-0.007410883903503418
0	5542	0.007049395237118006
0	5566	0.004450763110071421
0	5652	0.0159180648624897
0	5680	0.005166369490325451
0	5658	-0.004044761881232262
0	5586	-0.01319164503365755
0	5536	-0.009137092158198357
0	5536	0.0
0	5532	-0.0007278902921825647
0	5526	-0.0010897994507104158
0	5562	0.006528125144541264
0	5512	-0.009053925052285194
0	5458	-0.00976727344095707
0	5372	-0.015547226183116436
0	5672	0.05424235388636589
0	6824	0.20800480246543884
0	6878	0.009673835709691048
1	5498	-0.24516771733760834
0	4308	-0.2114628255367279
0	4770	0.08268604427576065
0	5324	0.0995984897017479
0	5474	0.02700205147266388
0	5566	0.016565831378102303
0	5596	0.005400669761002064
0	5606	0.0017991220811381936
0	5622	0.0028768356423825026
0	5650	0.005031687673181295
0	5630	-0.003591137006878853
0	5644	0.0025122021324932575
0	5672	0.00502140074968338
0	5684	0.0021498696878552437
0	5682	-0.0003580080228857696
0	5724	0.007512968499213457
0	5768	0.007867351174354553
0	5804	0.006433549802750349
0	5888	0.014998571947216988
0	5912	0.004277617204934359
0	5948	0.006402124650776386
0	6016	0.012063439004123211
0	5964	-0.009198655374348164
0	5978	0.0024701813235878944
0	5830	-0.02604961022734642
0	5614	-0.03794755041599274
0	5384	-0.040370237082242966
0	5176	-0.03650617226958275
0	5118	-0.010209230706095695
0	5072	-0.00817884411662817
0	5062	-0.0017972465138882399
0	5096	0.006126641295850277
0	5138	0.007532551418989897
0	5190	0.009305543266236782
0	5244	0.009671179577708244
0	5260	0.002869474934414029
0	5306	0.008264858275651932
0	5316	0.0017998343100771308
0	5352	0.006490696687251329
0	5370	0.003250623121857643
0	5404	0.006150431931018829
0	5418	0.0025359869468957186
0	5414	-0.0007255577947944403
0	5452	0.006903568282723427
0	5442	-0.0018192845163866878
0	5450	0.0014575489331036806
0	5416	-0.0062049082480371
0	5406	-0.0018288892460986972
0	5450	0.008066684938967228
0	5412	-0.006985379848629236
0	5454	0.007744410075247288
0	5438	-0.0029592367354780436
0	5398	-0.007424548268318176
0	5454	0.0104308957234025
0	5520	0.012333681806921959
0	5558	0.007114950101822615
0	5574	0.0029968158341944218
0	5474	-0.01870790682733059
0	5456	-0.0033611771650612354
0	5420	-0.006708241533488035
0	5422	0.00037187623092904687
0	5438	0.002968386746942997
0	5410	-0.005183713510632515
0	5436	0.004805381875485182
0	5382	-0.009965306147933006
0	5280	-0.018807390704751015
0	5310	0.005530905444175005
0	6170	0.1585487276315689
0	6882	0.13057830929756165
0	6100	-0.14208710193634033
1	4600	-0.2713458836078644
0	4522	-0.014178724028170109
0	5066	0.09942731261253357
0	5394	0.060076192021369934
0	5490	0.0175895057618618
0	5538	0.008792174980044365
0	5576	0.006956733763217926
0	5558	-0.0032920807134360075
0	5574	0.0029235847759991884
0	5602	0.0051124123856425285
0	5578	-0.004377006087452173
0	5600	0.004009233321994543
0	5612	0.0021847046446055174
0	5594	-0.003272806527093053
0	5636	0.007630074862390757
0	5656	0.0036308185663074255
0	5690	0.006168733350932598
0	5738	0.008702694438397884
0	5802	0.011585108004510403
0	5870	0.01228353288024664
0	5886	0.002882432658225298
0	5924	0.006826756056398153
0	5922	-0.0003582602948881686
0	5816	-0.018929922953248024
0	5682	-0.02387627214193344
0	5410	-0.04837906360626221
0	5216	-0.03447908163070679
0	5046	-0.030230462551116943
0	5002	-0.007876834832131863
0	4992	-0.0018105008639395237
0	4984	-0.0014581510331481695
0	5050	0.012001745402812958
0	5064	0.0025377031415700912
0	5140	0.013776268810033798
0	5192	0.009440356865525246
0	5190	-0.0003637465706560761
0	5236	0.008383858948946
0	5264	0.005113781895488501
0	5284	0.003659250447526574
0	5336	0.009530908428132534
0	5336	0.0
0	5376	0.007354293018579483
0	5368	-0.0014728805981576443
0	5390	0.004056496080011129
0	5398	0.0014769412809982896
0	5374	-0.004437322728335857
0	5402	0.005185889545828104
0	5388	-0.00259756320156157
0	5388	0.0
0	5404	0.0029827372636646032
0	5386	-0.0033653248101472855
0	5442	0.01050262525677681
0	5434	-0.001504909829236567
0	5454	0.0037738224491477013
0	5408	-0.008699598722159863
0	5440	0.006062366534024477
0	5520	0.015153045766055584
0	5540	0.003781004110351205
0	5578	0.007161613553762436
0	5532	-0.008638065308332443
0	5466	-0.012351994402706623
0	5428	-0.007090433966368437
0	5390	-0.0070738038048148155
0	5438	0.008917292580008507
0	5416	-0.00407956400886178
0	5386	-0.00555534940212965
0	5404	0.003329182043671608
0	5248	-0.02882305718958378
0	5264	0.002956502605229616
0	5728	0.08574913442134857
0	7078	0.24888461828231812
0	6530	-0.09995865821838379
1	4992	-0.27858617901802063
0	4292	-0.12708325684070587
0	4890	0.10929161310195923
0	5330	0.08066487312316895
0	5386	0.01026919949799776
0	5472	0.015772100538015366
0	5496	0.004399256780743599
0	5532	0.006594533566385508
0	5510	-0.004026845563203096
0	5504	-0.0010974003234878182
0	5552	0.00877588614821434
0	5528	-0.004384789615869522
0	5546	0.0032871109433472157
0	5576	0.00547392014414072
0	5600	0.004375516436994076
0	5648	0.008746780455112457
0	5676	0.0050989435985684395
0	5738	0.011283805593848228
0	5782	0.007997866719961166
0	5846	0.01161103043705225
0	5910	0.011581754311919212
0	5890	-0.0036079809069633484
0	5956	0.011874062940478325
0	5858	-0.01757427118718624
0	5634	-0.0400567464530468
0	5450	-0.032858707010746
0	5170	-0.04994232580065727
0	5054	-0.02070196159183979
0	4978	-0.013617956079542637
0	4984	0.001088757999241352
0	5026	0.007693246938288212
0	5056	0.00549403578042984
0	5098	0.007655944675207138
0	5110	0.0021846515592187643
0	5166	0.010208670049905777
0	5200	0.0062064179219305515
0	5240	0.007313773036003113
0	5256	0.002930080983787775
0	5278	0.004035660531371832
0	5322	0.00808278750628233
0	5344	0.004045902751386166
0	5350	0.001104836817830801
0	5368	0.00331813539378345
0	5362	-0.0011072562774643302
0	5392	0.005543578881770372
0	5406	0.002590321935713291
0	5384	-0.00407659076154232
0	5428	0.008167913183569908
0	5394	-0.006323698908090591
0	5428	0.006338947452604771
0	5394	-0.006355457007884979
0	5412	0.003375506494194269
0	5444	0.006018884014338255
0	5402	-0.007925226353108883
0	5404	0.0003784772416111082
0	5436	0.006064435001462698
0	5468	0.006064970977604389
0	5502	0.006431922782212496
0	5548	0.008677498437464237
0	5538	-0.0018796756630763412
0	5498	-0.00749269500374794
0	5446	-0.009711881168186665
0	5412	-0.006334695499390364
0	5450	0.007066173944622278
0	5416	-0.006309070158749819
0	5452	0.006669878028333187
0	5404	-0.008879352360963821
0	5336	-0.01256637368351221
0	5280	-0.010343681089580059
0	5716	0.08053195476531982
0	7002	0.23695750534534454
0	6620	-0.06967751681804657
1	5020	-0.2896067202091217
0	4280	-0.13422493636608124
0	4758	0.08727298676967621
0	5228	0.08614475280046463
0	5374	0.026788990944623947
0	5402	0.005137929227203131
0	5466	0.01174570620059967
0	5464	-0.000366891676094383
0	5506	0.00770303001627326
0	5524	0.0032990395557135344
0	5488	-0.006593567784875631
0	5558	0.0128173828125
0	5514	-0.00804897677153349
0	5566	0.009506050497293472
0	5556	-0.0018266397528350353
0	5576	0.0036513227969408035
0	5612	0.006569423247128725
0	5664	0.009485473856329918
0	5708	0.008020025677978992
0	5770	0.011286544613540173
0	5810	0.007267353590577841
0	5870	0.010874818079173565
0	5876	0.0010847293306142092
0	5912	0.006490384694188833
0	5760	-0.02732829935848713
0	5616	-0.02583484910428524
0	5330	-0.05122510343790054
0	5116	-0.038317833095788956
0	4998	-0.02120446041226387
0	4918	-0.014550568535923958
0	4948	0.005513354204595089
0	4954	0.0011031575268134475
0	4996	0.007690336089581251
0	5042	0.008410531096160412
0	5050	0.0014643610920757055
0	5112	0.011371278204023838
0	5108	-0.0007349338848143816
0	5152	0.008102036081254482
0	5164	0.002213886007666588
0	5134	-0.005546380300074816
0	5192	0.01074883621186018
0	5200	0.0014853138709440827
0	5176	-0.004465836565941572
0	5222	0.008577502332627773
0	5224	0.0003737339866347611
0	5262	0.007115660700947046
0	5244	-0.0033771952148526907
0	5262	0.003384985728189349
0	5290	0.005278835538774729
0	5262	-0.005292738787829876
0	5322	0.011378002353012562
0	5302	-0.003804402891546488
0	5304	0.0003818154218606651
0	5340	0.006897784769535065
0	5322	-0.0034615383483469486
0	5312	-0.0019284915179014206
0	5378	0.012752966023981571
0	5434	0.01081735361367464
0	5472	0.007325347978621721
0	5482	0.0019218695815652609
0	5436	-0.008808773010969162
0	5398	-0.00725421542301774
0	5380	-0.003426526440307498
0	5374	-0.0011393992463126779
0	5364	-0.0018950160592794418
0	5412	0.00907807145267725
0	5390	-0.004152928479015827
0	5386	-0.0007537404308095574
0	5254	-0.024836929515004158
0	5358	0.019557449966669083
0	5910	0.10365937650203705
0	6942	0.19293084740638733
1	5974	-0.17902277410030365
0	4334	-0.30181828141212463
0	4552	0.04033949226140976
0	5042	0.09104873239994049
0	5352	0.05768086016178131
0	5442	0.01673484593629837
0	5474	0.005943536292761564
0	5514	0.0074209668673574924
0	5538	0.004445652011781931
0	5536	-0.0003699775552377105
0	5548	0.0022166669368743896
0	5594	0.008484476245939732
0	5578	-0.0029465206898748875
0	5616	0.0069870068691670895
0	5616	0.0
0	5636	0.0036651964765042067
0	5688	0.009517766535282135
0	5720	0.005849378649145365
0	5760	0.007301134988665581
0	5782	0.004007724113762379
0	5860	0.014176147058606148
0	5894	0.006161429453641176
0	5892	-0.000361302139936015
0	5940	0.008643768727779388
0	5814	-0.022618206217885017
0	5670	-0.0257839635014534
0	5454	-0.03861049935221672
0	5274	-0.03213711827993393
0	5100	-0.031081417575478554
0	5042	-0.01041068322956562
0	5046	0.000726233993191272
0	5046	0.0
0	5094	0.008726214990019798
0	5102	0.0014496080111712217
0	5112	0.0018113534897565842
0	5190	0.014149060472846031
0	5194	0.000726700178347528
0	5240	0.008371246978640556
0	5284	0.008020610548555851
0	5338	0.009858692064881325
0	5354	0.0029246180783957243
0	5364	0.0018300493247807026
0	5412	0.008796579204499722
0	5442	0.005503442604094744
0	5402	-0.007345739286392927
0	5446	0.008090912364423275
0	5346	-0.01840987801551819
0	5382	0.0066414945758879185
0	5378	-0.000739480834454298
0	5378	0.0
0	5444	0.012260820716619492
0	5392	-0.009684989228844643
0	5334	-0.01083626039326191
0	5466	0.024747835472226143
0	5474	0.0015043249586597085
0	5562	0.01658291555941105
0	5534	-0.005279963370412588
0	5476	-0.010931571014225483
0	5452	-0.004517675377428532
0	5388	-0.012020585127174854
0	5428	0.007496626581996679
0	5406	-0.00411332817748189
0	5400	-0.0011193054961040616
0	5426	0.004841112531721592
0	5320	-0.01969723217189312
0	5274	-0.008536857552826405
0	5464	0.03524261713027954
0	6372	0.1681419163942337
0	6710	0.06215596944093704
0	5894	-0.1487567126750946
1	4646	-0.22674418985843658
0	4674	0.005109116435050964
0	5088	0.07586029917001724
0	5402	0.057650644332170486
0	5412	0.0018364574061706662
0	5480	0.012487145140767097
0	5512	0.005875080823898315
0	5508	-0.0007336398120969534
0	5536	0.005131525918841362
0	5552	0.002929472830146551
0	5560	0.0014631827361881733
0	5544	-0.0029242972377687693
0	5552	0.0014607958728447556
0	5590	0.006929585710167885
0	5572	-0.003279963042587042
0	5630	0.010562482289969921
0	5674	0.008009611628949642
0	5718	0.00800281297415495
0	5766	0.008717551827430725
0	5840	0.013414058834314346
0	5856	0.0028924376238137484
0	5892	0.006491242907941341
0	5914	0.0039553167298436165
0	5810	-0.018640443682670593
0	5630	-0.03218845650553703
0	5460	-0.03034413792192936
0	5230	-0.04100845009088516
0	5084	-0.0260677058249712
0	5050	-0.006117455195635557
0	5012	-0.0069059100933372974
0	5046	0.006212163716554642
0	5070	0.004374399781227112
0	5092	0.004000242333859205
0	5138	0.008363940753042698
0	5196	0.010562739335000515
0	5248	0.00948247592896223
0	5252	0.0007304512546397746
0	5288	0.006584482733160257
0	5348	0.010988876223564148
0	5302	-0.008434486575424671
0	5372	0.01285472884774208
0	5362	-0.0018385056173428893
0	5388	0.004785452038049698
0	5434	0.008475096896290779
0	5412	-0.004057194106280804
0	5428	0.0029535917565226555
0	5434	0.0011089753825217485
0	5422	-0.0022212350741028786
0	5446	0.004450598265975714
0	5406	-0.007432365324348211
0	5434	0.005216678604483604
0	5406	-0.005230385810136795
0	5414	0.0014989320188760757
0	5494	0.015036274679005146
0	5550	0.010546272620558739
0	5610	0.011305254884064198
0	5534	-0.014306510798633099
0	5490	-0.008266947232186794
0	5450	-0.007496345788240433
0	5410	-0.007477660663425922
0	5434	0.004475496709346771
0	5434	0.0
0	5438	0.0007424455834552646
0	5430	-0.0014817193150520325
0	5330	-0.018488161265850067
0	5362	0.005911329761147499
0	5650	0.05316464975476265
0	6686	0.19077785313129425
0	6840	0.028117582201957703
1	5152	-0.3054245412349701
0	4262	-0.1611812710762024
0	4740	0.08715099841356277
0	5234	0.09040995687246323
0	5412	0.03260749951004982
0	5442	0.00549638457596302
0	5474	0.0058617363683879375
0	5514	0.007325113285332918
0	5488	-0.004758999217301607
0	5540	0.00951416790485382
0	5526	-0.0025600390508770943
0	5572	0.008405408822000027
0	5590	0.0032863107044249773
0	5576	-0.002553160535171628
0	5646	0.012753243558108807
0	5668	0.004004465416073799
0	5680	0.0021826913580298424
0	5798	0.02145402505993843
0	5802	0.000726093421690166
0	5886	0.015219229273498058
0	5912	0.004698342178016901
0	5938	0.0046841781586408615
0	5978	0.007184682413935661
0	5912	-0.011816239915788174
0	5772	-0.024994049221277237
0	5474	-0.0530935600399971
0	5204	-0.04806379973888397
0	5032	-0.0306471548974514
0	4904	-0.02289120852947235
0	4930	0.004699700977653265
0	4934	0.0007314486429095268
0	4996	0.0113525390625
0	5004	0.0014583106385543942
0	5014	0.0018199686892330647
0	5090	0.013850247487425804
0	5098	0.001460778177715838
0	5178	0.014638430438935757
0	5164	-0.0025663585402071476
0	5196	0.005878535099327564
0	5252	0.010305863805115223
0	5252	0.0
0	5280	0.005170757882297039
0	5278	-0.0003700049128383398
0	5276	-0.0003707182186190039
0	5326	0.00928516685962677
0	5324	-0.0003721438115462661
0	5298	-0.004848213866353035
0	5324	0.0048597524873912334
0	5326	0.00037493440322577953
0	5316	-0.0018802647246047854
0	5298	-0.003396610962226987
0	5352	0.010229339823126793
0	5428	0.014450318180024624
0	5482	0.010303245857357979
0	5464	-0.0034438336733728647
0	5388	-0.01456924807280302
0	5322	-0.012659198604524136
0	5284	-0.007283135317265987
0	5274	-0.0019135338952764869
0	5282	0.0015272228047251701
0	5266	-0.003047619014978409
0	5274	0.0015206041280180216
0	5294	0.0037948263343423605
0	5152	-0.026893939822912216
0	5252	0.01892290823161602
0	6018	0.14480151236057281
0	6908	0.16727226972579956
1	5714	-0.222001850605011
0	4072	-0.3042618930339813
0	4458	0.07202567160129547
0	4926	0.08775987476110458
0	5242	0.05937766283750534
0	5302	0.01127692312002182
0	5398	0.01804036647081375
0	5402	0.000751107872929424
0	5428	0.004879879765212536
0	5438	0.0018756564240902662
0	5392	-0.008620474487543106
0	5448	0.010490034706890583
0	5414	-0.00636410154402256
0	5456	0.007856733165681362
0	5478	0.004111381247639656
0	5508	0.005602031480520964
0	5562	0.01007863786071539
0	5578	0.0029847777914255857
0	5686	0.02013297565281391
0	5764	0.014513608068227768
0	5794	0.0055668954737484455
0	5864	0.012948575429618359
0	5878	0.002580328145995736
0	5888	0.001836367417126894
0	5774	-0.020855184644460678
0	5522	-0.04596080258488655
0	5294	-0.04152602329850197
0	5050	-0.044401850551366806
0	4936	-0.02077057585120201
0	4888	-0.00880335457623005
0	4890	0.000371392845408991
0	4958	0.012692092917859554
0	4960	0.0003712503530550748
0	5010	0.009252520278096199
0	5054	0.008138000965118408
0	5110	0.010369474068284035
0	5162	0.009640221484005451
0	5206	0.008169024251401424
0	5246	0.007435405161231756
0	5258	0.002233139704912901
0	5314	0.01043296791613102
0	5304	-0.0018639329355210066
0	5334	0.005596805829554796
0	5358	0.004479673691093922
0	5350	-0.0014941355912014842
0	5390	0.007476635742932558
0	5372	-0.003366961143910885
0	5380	0.0014982020948082209
0	5428	0.009000337682664394
0	5362	-0.012395452708005905
0	5402	0.007531349081546068
0	5458	0.010569892823696136
0	5534	0.01438159216195345
0	5600	0.012516435235738754
0	5580	-0.0037997770123183727
0	5476	-0.019783146679401398
0	5460	-0.0030444487929344177
0	5410	-0.009503896348178387
0	5456	0.008723686449229717
0	5440	-0.0030243839137256145
0	5462	0.004144114907830954
0	5486	0.004504673648625612
0	5412	-0.013843678869307041
0	5382	-0.005596527364104986
0	5678	0.05509163439273834
0	6770	0.2024596780538559
0	6970	0.03670398145914078
1	5390	-0.28678953647613525
0	4282	-0.20089204609394073
0	4836	0.10103466361761093
0	5244	0.07459957152605057
0	5462	0.03987659141421318
0	5516	0.009868180379271507
0	5564	0.008762001991271973
