0	5182	-0.006150061264634132
0	5252	0.013452569954097271
0	5242	-0.0019209344172850251
0	5232	-0.0019201966933906078
0	5202	-0.005758746527135372
0	5204	0.0003838673292193562
0	5206	0.0003838133125100285
0	5224	0.003453789744526148
0	5224	0.0
0	5218	-0.0011508804745972157
0	5210	-0.001534154056571424
0	5238	0.005369608290493488
0	5220	-0.0034512290731072426
0	5212	-0.0015335071366280317
0	5226	0.0026836376637220383
0	5210	-0.0030667006503790617
0	5256	0.008817778900265694
0	5252	-0.0007665478042326868
0	5254	0.0003831809153780341
0	5306	0.009958124719560146
0	5352	0.008804501965641975
0	5392	0.007647793740034103
0	5306	-0.016424961388111115
0	5182	-0.023671047762036324
0	5160	-0.00420093210414052
0	5142	-0.003438482992351055
0	5072	-0.013378864154219627
0	5008	-0.0122431805357337
0	5026	0.0034478355664759874
0	5018	-0.0015342914266511798
0	5036	0.0034564866218715906
0	5098	0.011916812509298325
0	4816	-0.054255809634923935
0	4702	-0.021993286907672882
0	5892	0.23036418855190277
0	7614	0.3318729102611542
0	7534	-0.015182954259216785
1	4230	-0.6179551482200623
0	4454	0.04215650632977486
0	5070	0.1164931058883667
0	4838	-0.043914999812841415
0	4824	-0.002656277734786272
0	4908	0.015979506075382233
0	4962	0.0102929025888443
0	4982	0.0038182511925697327
0	5020	0.0072659594006836414
0	5042	0.004211708437651396
0	5098	0.010735373012721539
0	5154	0.010745948180556297
0	5152	-0.0003840294957626611
0	5182	0.005766126327216625
0	5218	0.006926895584911108
0	5248	0.005778862163424492
0	5282	0.006551817059516907
0	5296	0.0026960752438753843
0	5384	0.01693197712302208
0	5444	0.011526638641953468
0	5530	0.01648225262761116
0	5590	0.011461026035249233
0	5642	0.009897347539663315
0	5678	0.006824989337474108
0	5664	-0.0026434380561113358
0	5638	-0.004891815595328808
0	5528	-0.020589997991919518
0	5378	-0.027933308854699135
0	5206	-0.03213271498680115
0	4988	-0.04134634882211685
0	4800	-0.03623979911208153
0	4634	-0.03188220411539078
0	4556	-0.014963550493121147
0	4574	0.0034645143896341324
0	4576	0.0003855991526506841
0	4658	0.015834802761673927
0	4710	0.010057767853140831
0	4748	0.007361867930740118
0	4808	0.01164159458130598
0	4876	0.013211921788752079
0	4926	0.00972510315477848
0	4936	0.001947192125953734
0	4966	0.005849853623658419
0	4992	0.005076010245829821
0	5036	0.008600805886089802
0	5054	0.0035226887557655573
0	5060	0.0011757175670936704
0	5104	0.008634448982775211
0	5096	-0.001571873901411891
0	5144	0.00944906659424305
0	5136	-0.001577950781211257
0	5154	0.003559610340744257
0	5172	0.0035698702558875084
0	5152	-0.00397888571023941
0	5164	0.00239568785764277
0	5168	0.0008012285106815398
0	5164	-0.000803750881459564
0	5182	0.0036257184110581875
0	5182	0.0
0	5182	0.0
0	5222	0.008058559149503708
0	5218	-0.0008035785867832601
0	5210	-0.0016008964739739895
0	5204	-0.001195457298308611
0	5216	0.0023809524718672037
0	5220	0.000790305552072823
0	5216	-0.0007873912109062076
0	5234	0.0035315353889018297
0	5218	-0.0031291968189179897
0	5246	0.005461496766656637
0	5212	-0.006615901365876198
0	5224	0.002330700634047389
0	5238	0.002714090049266815
0	5228	-0.001935234060510993
0	5238	0.0019322923617437482
0	5220	-0.003473607124760747
0	5212	-0.0015421785647049546
0	5216	0.0007703368901275098
0	5242	0.00500359246507287
0	5182	-0.01153594721108675
0	5212	0.005766569171100855
0	5202	-0.0019212543265894055
0	5214	0.0023047965951263905
0	5182	-0.006144471932202578
0	5208	0.004991425201296806
0	5216	0.0015353907365351915
0	5234	0.0034535687882453203
0	5214	-0.0038355812430381775
0	5210	-0.0007669593906030059
0	5236	0.0049843438901007175
0	5202	-0.00651573995128274
0	5218	0.0030666221864521503
0	5226	0.0015333110932260752
0	5210	-0.003066309029236436
0	5216	0.0011498216772451997
0	5226	0.0019163695396855474
0	5182	-0.00843170378357172
0	5210	0.005366794764995575
0	5214	0.0007668025209568441
0	5218	0.0007668221369385719
0	5296	0.014955708757042885
0	5334	0.007282204460352659
0	5352	0.0034470432437956333
0	5292	-0.01148178894072771
0	5182	-0.021041356027126312
0	5170	-0.002296240534633398
0	5116	-0.010336379520595074
0	5072	-0.008427396416664124
0	5042	-0.005751239601522684
0	5032	-0.0019195331260561943
0	5048	0.0030742036178708076
0	5082	0.006539551541209221
0	5068	-0.0026948298327624798
0	4816	-0.04855241999030113
0	4852	0.006952401716262102
0	6560	0.3306104838848114
0	7820	0.24179619550704956
1	6958	-0.1627274751663208
0	3634	-0.6206896305084229
0	4584	0.17915064096450806
0	5088	0.0954352617263794
0	4880	-0.03941434249281883
0	4878	-0.0003797949175350368
0	4930	0.009896468371152878
0	4970	0.007626213598996401
0	5048	0.014894402585923672
0	5054	0.0011470229364931583
0	5076	0.004209183622151613
0	5100	0.004595763981342316
0	5130	0.005748888477683067
0	5176	0.008819920010864735
0	5204	0.005372767802327871
0	5222	0.003456796519458294
0	5248	0.004997309297323227
0	5284	0.0069213020615279675
0	5314	0.005763983819633722
0	5358	0.00844605453312397
0	5462	0.019932536408305168
0	5538	0.014529881998896599
0	5594	0.0106724938377738
0	5644	0.009495113044977188
0	5706	0.011729687452316284
0	5720	0.0026382573414593935
0	5710	-0.0018767829751595855
0	5628	-0.015304027125239372
0	5488	-0.026003295555710793
0	5322	-0.031038479879498482
0	5142	-0.034188468009233475
0	4862	-0.05380063131451607
0	4654	-0.03965429589152336
0	4558	-0.018293844535946846
0	4488	-0.0133843207731843
0	4554	0.012651110999286175
0	4556	0.0003841622674372047
0	4648	0.01771388202905655
0	4712	0.012348220683634281
0	4758	0.008894503116607666
0	4810	0.010073875077068806
0	4876	0.012808073312044144
0	4916	0.007773732766509056
0	4946	0.005838393233716488
0	4980	0.006626733113080263
0	5012	0.006246014963835478
0	5038	0.00508183054625988
0	5066	0.005480238702148199
0	5080	0.0027440220583230257
0	5082	0.00039260333869606256
0	5118	0.007079645991325378
0	5138	0.003942025825381279
0	5130	-0.0015809651231393218
0	5134	0.000792906095739454
0	5164	0.005966903641819954
0	5152	-0.0023953691124916077
0	5134	-0.00360668427310884
0	5128	-0.001206871122121811
0	5152	0.004843722563236952
0	5182	0.006068370305001736
0	5160	-0.004454343114048243
0	5182	0.004453802015632391
0	5172	-0.002020093146711588
0	5182	0.002013071672990918
0	5206	0.004811225924640894
0	5206	0.0
0	5204	-0.00039729836862534285
0	5206	0.0003956009168177843
0	5182	-0.0047298092395067215
0	5182	0.0
0	5216	0.00666144210845232
0	5182	-0.006643826141953468
0	5202	0.003900358686223626
0	5230	0.0054503693245351315
0	5202	-0.005440344102680683
0	5218	0.003104304661974311
0	5248	0.005812827032059431
0	5204	-0.00851393211632967
0	5250	0.008893013000488281
0	5224	-0.005020985379815102
0	5216	-0.0015435076784342527
0	5212	-0.0007712676888331771
0	5206	-0.0011563515290617943
0	5212	0.0011557872639968991
0	5208	-0.0007701391587033868
0	5182	-0.005004491191357374
0	5180	-0.00038488677819259465
0	5206	0.005002052057534456
0	5212	0.0011537425452843308
0	5182	-0.005766495130956173
0	5182	0.0
0	5202	0.0038437882903963327
0	5182	-0.0038432960864156485
0	5178	-0.0007686099270358682
0	5182	0.0007686296012252569
0	5212	0.005765608977526426
0	5250	0.007302823476493359
0	5326	0.014601345174014568
0	5388	0.011902476660907269
0	5304	-0.01610470563173294
0	5242	-0.011877547018229961
0	5138	-0.019920319318771362
0	5140	0.0003831906942650676
0	5070	-0.013416986912488937
0	5030	-0.007674695458263159
0	5016	-0.00268910126760602
0	5050	0.006539131980389357
0	5072	0.004236580803990364
0	5098	0.005011114291846752
0	4834	-0.05093182250857353
0	4926	0.017793593928217888
0	6722	0.3480125665664673
0	7542	0.15735740959644318
1	5252	-0.4329795837402344
0	3822	-0.2703077495098114
0	4738	0.17467358708381653
0	5224	0.09293846040964127
0	5048	-0.033647287636995316
0	5020	-0.005358372814953327
0	5006	-0.0026824718806892633
0	5054	0.00920739583671093
0	5080	0.004991425201296806
0	5072	-0.001537022995762527
0	5112	0.007690532598644495
0	5156	0.00846316572278738
0	5162	0.0011542604770511389
0	5182	0.0038487690035253763
0	5216	0.0065457625314593315
0	5256	0.00770633714273572
0	5282	0.005013369023799896
0	5314	0.006171172950416803
0	5364	0.00963799748569727
0	5396	0.0061593735590577126
0	5466	0.013451536186039448
0	5550	0.01610100083053112
0	5622	0.01375515852123499
0	5638	0.003044951008632779
0	5684	0.008721701800823212
0	5618	-0.012465531006455421
0	5586	-0.006024172063916922
0	5442	-0.026981450617313385
0	5234	-0.03884800523519516
0	4990	-0.04599781334400177
0	4718	-0.05211193859577179
0	4518	-0.038448721170425415
0	4446	-0.0137800807133317
0	4412	-0.0065194047056138515
0	4450	0.007324406877160072
0	4504	0.010448511689901352
0	4546	0.008153756149113178
0	4598	0.010125268250703812
0	4710	0.021873006597161293
0	4786	0.014878233894705772
0	4804	0.00353038078173995
0	4876	0.014150016009807587
0	4936	0.011813349090516567
0	4942	0.0011830896837636828
0	5002	0.011849588714540005
0	5004	0.00039554352406412363
0	5026	0.00435821944847703
0	5058	0.006349962204694748
0	5054	-0.000795091618783772
0	5084	0.005975461099296808
0	5080	-0.0007983819232322276
0	5082	0.0004002187924925238
0	5094	0.0024088325444608927
0	5108	0.0028202682733535767
0	5126	0.0036390102468430996
0	5102	-0.004870327655225992
0	5118	0.0032582576386630535
0	5108	-0.0020429010037332773
0	5112	0.0008190231746993959
0	5144	0.006557646207511425
0	5170	0.0053224884904921055
0	5172	0.0004081632650922984
0	5182	0.0020317770540714264
0	5162	-0.004043398890644312
0	5206	0.008850743994116783
0	5182	-0.004803330637514591
0	5164	-0.0035862764343619347
0	5182	0.003571617417037487
0	5202	0.003953194245696068
0	5182	-0.003940420690923929
0	5208	0.005109259858727455
0	5208	0.0
0	5224	0.003129074117168784
0	5182	-0.008198427967727184
0	5208	0.005067304242402315
0	5224	0.003114173421636224
0	5228	0.0007774336845614016
0	5220	-0.0015528352232649922
0	5250	0.005817034747451544
0	5254	0.0007746233604848385
0	5238	-0.0030950966756790876
0	5254	0.0030919467099010944
0	5220	-0.006563114933669567
0	5220	0.0
0	5206	-0.0026983271818608046
0	5228	0.00423804996535182
0	5232	0.0007699315901845694
0	5208	-0.004616213031113148
0	5264	0.01076426263898611
0	5252	-0.002304383320733905
0	5292	0.007675971370190382
0	5374	0.015723472461104393
0	5378	0.0007660096161998808
0	5312	-0.01262336503714323
0	5212	-0.019108036532998085
0	5182	-0.005732191726565361
0	5152	-0.005732191726565361
0	5082	-0.013376136310398579
0	5048	-0.006501121912151575
0	5070	0.004210741259157658
0	5080	0.001915341941639781
0	5100	0.0038338168524205685
0	5094	-0.0011509392643347383
0	4810	-0.05452311784029007
0	4852	0.008082518354058266
0	6354	0.28970786929130554
0	7736	0.26463940739631653
0	6982	-0.14210863411426544
1	4046	-0.5472983121871948
0	4680	0.11907444894313812
0	5160	0.0904761329293251
0	4920	-0.045260246843099594
0	4952	0.006047396454960108
0	4976	0.0045432173646986485
0	4990	0.002654296811670065
0	5052	0.011770810931921005
0	5072	0.0038012696895748377
0	5100	0.005327177233994007
0	5152	0.009900109842419624
0	5152	0.0
0	5216	0.012201166711747646
0	5228	0.0022888241801410913
0	5254	0.004963726736605167
0	5310	0.01069954689592123
0	5334	0.0045855785720050335
0	5392	0.011073210276663303
0	5422	0.0057198782451450825
0	5474	0.009897472336888313
0	5546	0.013670194894075394
0	5608	0.011734572239220142
0	5668	0.011317622847855091
0	5678	0.0018793223425745964
0	5684	0.0011235253186896443
0	5660	-0.004477611742913723
0	5556	-0.019300958141684532
0	5384	-0.03178240358829498
0	5182	-0.037550188601017
0	4960	-0.041931625455617905
0	4816	-0.027549615129828453
0	4686	-0.024749647825956345
0	4610	-0.014468474313616753
0	4610	0.0
0	4642	0.0061254180036485195
0	4678	0.006904752925038338
0	4728	0.009608239866793156
0	4816	0.01693893037736416
0	4852	0.0069400714710354805
0	4898	0.00888042338192463
0	4940	0.0081187654286623
0	4950	0.0019356836564838886
0	5032	0.015893321484327316
0	5078	0.008926376700401306
0	5108	0.00582720385864377
0	5102	-0.0011665435740724206
0	5142	0.007787454407662153
0	5166	0.004678301513195038
0	5182	0.0031234545167535543
0	5176	-0.0011731275590136647
0	5182	0.001175410347059369
0	5182	0.0
0	5182	0.0
0	5182	0.0
0	5222	0.007927804253995419
0	5216	-0.0011928112944588065
0	5218	0.00039877707604318857
0	5218	0.0
0	5206	-0.0024007041938602924
0	5232	0.005200693383812904
0	5220	-0.0023959747049957514
0	5236	0.0031860661692917347
0	5262	0.005158525425940752
0	5260	-0.0003951059770770371
0	5242	-0.003540797857567668
0	5280	0.007445724215358496
0	5240	-0.007806909270584583
0	5242	0.0003890495572704822
0	5250	0.0015519114676862955
0	5256	0.0011609457433223724
0	5260	0.0007721809088252485
0	5272	0.002311782445758581
0	5248	-0.004614023957401514
0	5244	-0.0007679410045966506
0	5264	0.003835630603134632
0	5254	-0.0019159044604748487
0	5262	0.0015312372706830502
0	5258	-0.0007650328916497529
0	5260	0.00038229222991503775
0	5264	0.0007642045966349542
0	5254	-0.0019094415474683046
0	5218	-0.006870841141790152
0	5258	0.007632519584149122
0	5246	-0.002288649557158351
0	5260	0.002669005189090967
0	5254	-0.001143583212979138
0	5260	0.001143307308666408
0	5250	-0.0019050037954002619
0	5274	0.004571080207824707
0	5294	0.003807589877396822
0	5324	0.005709138233214617
0	5422	0.018637556582689285
0	5360	-0.011777221225202084
0	5276	-0.015946339815855026
0	5216	-0.011389088816940784
0	5182	-0.006454878952354193
0	5158	-0.004559212364256382
0	5100	-0.01102382130920887
0	5078	-0.004185214638710022
0	5068	-0.0019044475629925728
0	5106	0.007245547603815794
0	5128	0.004198900423943996
0	4982	-0.02789098396897316
0	4794	-0.03597535565495491
0	6606	0.3477393090724945
0	7878	0.24203062057495117
0	7116	-0.14261651039123535
1	4006	-0.5754144787788391
0	4500	0.09211147576570511
0	5136	0.11915169656276703
0	4932	-0.03824904188513756
0	4894	-0.007139189168810844
0	4910	0.003012086031958461
0	5004	0.01773473247885704
0	5020	0.0030232793651521206
0	5084	0.012111425399780273
0	5108	0.004546659998595715
0	5128	0.0037925238721072674
0	5172	0.008349990472197533
0	5206	0.006456431467086077
0	5244	0.007220033556222916
0	5260	0.0030415551736950874
0	5280	0.0038058506324887276
0	5348	0.01294646319001913
0	5372	0.004567252937704325
0	5446	0.014068441465497017
0	5496	0.00948982685804367
0	5528	0.006060529500246048
0	5602	0.01397720817476511
0	5654	0.009789525531232357
0	5692	0.007127672433853149
0	5692	0.0
0	5644	-0.008939102292060852
0	5576	-0.01261189952492714
0	5358	-0.04023773595690727
0	5178	-0.033480897545814514
0	4938	-0.045401230454444885
0	4718	-0.0421973280608654
0	4580	-0.02634928561747074
0	4516	-0.01221374049782753
0	4492	-0.004598288331180811
0	4566	0.014218010008335114
0	4578	0.0023104767315089703
0	4644	0.012734757736325264
0	4756	0.02166065014898777
0	4798	0.00813659094274044
0	4854	0.010868861339986324
0	4896	0.00816506426781416
0	4928	0.006230367813259363
0	4992	0.012480499222874641
0	5018	0.005077265668660402
0	5066	0.009387223049998283
0	5070	0.0007832591072656214
0	5126	0.010980678722262383
0	5152	0.005105580668896437
0	5158	0.0011799100320786238
0	5158	0.0
0	5182	0.004739087074995041
0	5158	-0.0047499043866992
0	5170	0.0023819291964173317
0	5180	0.00199131784029305
0	5158	-0.004395838361233473
0	5172	0.002807336626574397
0	5182	0.0020115866791456938
0	5202	0.004033830016851425
0	5216	0.0028266457375139
0	5220	0.0008074066136032343
0	5210	-0.0020146938040852547
0	5222	0.0024096709676086903
0	5182	-0.007997866719961166
0	5234	0.010351280681788921
0	5230	-0.000792351202107966
0	5246	0.0031555695459246635
0	5234	-0.0023563294671475887
0	5208	-0.005085740238428116
0	5236	0.005460857413709164
0	5250	0.0027226759120821953
0	5246	-0.0007759155705571175
0	5254	0.001548327156342566
0	5238	-0.0030901553109288216
0	5258	0.0038565865252166986
0	5256	-0.00038506463170051575
0	5242	-0.0026921697426587343
0	5246	0.0007683442090637982
0	5248	0.00038387716631405056
0	5256	0.0015345660503953695
0	5240	-0.0030672100838273764
0	5244	0.0007664009463042021
0	5260	0.003064390504732728
0	5236	-0.004593594465404749
0	5286	0.009565960615873337
0	5292	0.0011471398174762726
0	5376	0.016046253964304924
0	5454	0.014880763366818428
0	5334	-0.022853950038552284
0	5310	-0.004566963296383619
0	5206	-0.019778380170464516
0	5182	-0.004564647097140551
0	5142	-0.007609095424413681
0	5116	-0.004948421847075224
0	5084	-0.006092917174100876
0	5096	0.0022870211396366358
0	5132	0.006866909097880125
0	5140	0.0015270867152139544
0	4984	-0.029796011745929718
0	4920	-0.012241463176906109
0	6246	0.25413984060287476
0	7706	0.2780528664588928
1	6578	-0.21152116358280182
0	3480	-0.5761649012565613
0	4422	0.17712315917015076
0	5180	0.14327658712863922
0	5182	0.0003782196145039052
0	5084	-0.018539773300290108
0	5072	-0.0022724978625774384
0	5104	0.006066734436899424
0	5114	0.0018976771971210837
0	5166	0.009875793009996414
0	5160	-0.0011400775983929634
0	5182	0.004182933364063501
0	5212	0.005705953575670719
0	5252	0.00761150848120451
0	5248	-0.0007613440393470228
0	5282	0.006476684007793665
0	5298	0.0030511836521327496
0	5348	0.009537131525576115
0	5404	0.01067900750786066
0	5432	0.0053327917121350765
0	5484	0.009888062253594398
0	5550	0.012523085810244083
0	5638	0.016651738435029984
0	5662	0.0045255692675709724
0	5720	0.01089802198112011
0	5732	0.00224648998118937
0	5692	-0.007460738066583872
0	5612	-0.014856081455945969
0	5472	-0.025887254625558853
0	5326	-0.027126118540763855
0	5066	-0.04902946949005127
0	4832	-0.04454993084073067
0	4662	-0.03209000080823898
0	4572	-0.016963208094239235
0	4506	-0.012487386353313923
0	4542	0.0068404655903577805
0	4582	0.007626698352396488
0	4620	0.007267998065799475
0	4704	0.016115829348564148
0	4756	0.01000269316136837
0	4846	0.01735798642039299
0	4894	0.009276318363845348
0	4924	0.005808474961668253
0	4958	0.006595197133719921
0	4998	0.007773832883685827
0	5028	0.005839833058416843
0	5044	0.0031197192147374153
0	5084	0.007812194526195526
0	5072	-0.002347693545743823
0	5100	0.005489836912602186
0	5114	0.0027508875355124474
0	5130	0.00315150897949934
0	5138	0.0015801116824150085
0	5154	0.0031706609297543764
0	5162	0.0015906679909676313
0	5134	-0.005588004365563393
0	5156	0.004408110864460468
0	5166	0.002010885626077652
0	5154	-0.002420298056676984
0	5180	0.005255214869976044
0	5182	0.00040464531048201025
0	5204	0.004447618965059519
0	5230	0.005243133287876844
0	5210	-0.004017839208245277
0	5202	-0.0016002986812964082
0	5230	0.005575172137469053
0	5230	0.0
0	5228	-0.0003947264631278813
0	5226	-0.00039315386675298214
0	5248	0.004309950862079859
0	5226	-0.004296147730201483
0	5242	0.003116761799901724
0	5248	0.0011661505559459329
0	5258	0.0019395131384953856
0	5278	0.003871517488732934
0	5352	0.014298779889941216
0	5416	0.012340758927166462
0	5332	-0.016158610582351685
0	5270	-0.011907657608389854
0	5182	-0.016879795119166374
0	5174	-0.0015337226213887334
0	5128	-0.008815525099635124
0	5098	-0.005749329458922148
0	5088	-0.0019169329898431897
0	5090	0.0003835483221337199
0	5106	0.003069799393415451
0	5112	0.0011513810604810715
0	4890	-0.04261309280991554
0	4984	0.018075300380587578
0	6946	0.37768539786338806
0	7486	0.10278535634279251
1	5286	-0.4127218425273895
0	4044	-0.23288081586360931
0	4960	0.17303696274757385
0	5232	0.05146316811442375
0	5016	-0.04086007922887802
0	5000	-0.0030307620763778687
0	5056	0.01062309555709362
0	5070	0.0026586654130369425
0	5114	0.008364064618945122
0	5112	-0.00038050784496590495
0	5170	0.011042710393667221
0	5182	0.0022857433650642633
0	5212	0.0057167536579072475
0	5244	0.006099652964621782
0	5266	0.004194417502731085
0	5234	-0.006104307249188423
0	5294	0.011458837427198887
0	5368	0.014135985635221004
0	5392	0.004581784829497337
0	5446	0.010295257903635502
0	5528	0.015606561675667763
0	5576	0.009112425148487091
0	5640	0.012113258242607117
0	5664	0.0045267073437571526
0	5634	-0.00563803780823946
0	5660	0.004870190750807524
0	5566	-0.017547572031617165
0	5364	-0.037550657987594604
0	5240	-0.022996747866272926
0	4990	-0.04685859754681587
0	4842	-0.02817974053323269
0	4636	-0.039333995431661606
0	4566	-0.013315748423337936
0	4516	-0.00953507050871849
0	4536	0.0038314666599035263
0	4572	0.0069178445264697075
0	4652	0.015415248461067677
0	4728	0.014682585373520851
0	4740	0.002323420252650976
0	4826	0.01669146679341793
0	4830	0.0007777864229865372
0	4900	0.013641323894262314
0	4858	-0.008199814707040787
0	5064	0.04031100869178772
0	4904	-0.03134632483124733
0	5094	0.037311967462301254
0	5076	-0.0035380604676902294
0	5098	0.00433048140257597
0	5182	0.016563909128308296
0	5016	-0.03277868404984474
0	5238	0.04396097734570503
0	5016	-0.04404528811573982
0	5028	0.002389676636084914
0	5152	0.024794047698378563
0	5182	0.006019100546836853
0	5160	-0.004427390638738871
0	5002	-0.03190372511744499
0	5152	0.030403761193156242
0	5076	-0.015426669269800186
0	5208	0.02682345174252987
0	5142	-0.013391951099038124
0	5134	-0.001619979739189148
0	5126	-0.001614552573300898
0	5126	0.0
0	5158	0.006407774984836578
0	5166	0.001595320412889123
0	5166	0.0
0	5176	0.001979570835828781
0	5158	-0.0035527250729501247
0	5170	0.002361987717449665
0	5182	0.002356668934226036
0	5182	0.0
0	5168	-0.002738082781434059
0	5166	-0.00039036577800288796
0	5174	0.0015604275977239013
0	5182	0.0015576931182295084
0	5172	-0.001946004806086421
0	5182	0.0019447938539087772
0	5160	-0.004276217892765999
0	5202	0.008164851926267147
0	5202	0.0
0	5214	0.0023305495269596577
0	5292	0.015129179693758488
0	5354	0.012005266733467579
0	5298	-0.010829347185790539
0	5206	-0.017777778208255768
0	5134	-0.013908922672271729
0	5112	-0.004246339201927185
0	5080	-0.00617808336392045
0	5046	-0.006564044393599033
0	5012	-0.0065708947367966175
0	5022	0.0019342360319569707
0	5080	0.011226675473153591
0	5070	-0.0019362083403393626
0	4946	-0.024017663672566414
0	4734	-0.041118741035461426
0	6090	0.2637414038181305
0	7726	0.31630638241767883
0	7106	-0.1179334968328476
1	4054	-0.5734542608261108
0	4434	0.07190252095460892
0	5182	0.14220532774925232
0	4960	-0.0422053225338459
0	4938	-0.004188029561191797
0	4976	0.007244350388646126
0	5012	0.006871715188026428
0	5038	0.004968279041349888
0	5066	0.005355025175958872
0	5138	0.013780255801975727
0	5156	0.003445547539740801
0	5166	0.0019147550920024514
0	5228	0.011874210089445114
0	5260	0.006128076929599047
0	5290	0.005746245849877596
0	5308	0.003449156880378723
0	5360	0.009963594377040863
0	5402	0.008039611391723156
0	5452	0.009554626420140266
0	5532	0.015254367142915726
0	5608	0.01445013377815485
0	5662	0.010230760090053082
0	5720	0.010943671688437462
0	5730	0.001878592767752707
0	5718	-0.00224517285823822
0	5614	-0.01937984488904476
0	5514	-0.018557466566562653
0	5362	-0.028071904554963112
0	5156	-0.038216087967157364
0	4892	-0.04976687580347061
0	4734	-0.030204936861991882
0	4612	-0.023222170770168304
0	4558	-0.01026707049459219
0	4578	0.0038177166134119034
0	4646	0.013011863455176353
0	4702	0.01073564775288105
0	4744	0.008065858855843544
0	4806	0.011927205137908459
0	4844	0.007321114186197519
0	4874	0.005788078997284174
0	4940	0.012755431234836578
0	4992	0.010063736699521542
0	5040	0.009300042875111103
0	5042	0.00038797283195890486
0	5090	0.009324491955339909
0	5114	0.004668291658163071
0	5096	-0.0035056283231824636
0	5104	0.0015607320237904787
0	5140	0.0070369308814406395
0	5174	0.006659528240561485
0	5176	0.00039265473606064916
0	5174	-0.0003937679575756192
0	5162	-0.0023701987229287624
0	5178	0.0031719179823994637
0	5182	0.0007958826026879251
0	5200	0.003594249254092574
0	5220	0.0040046451613307
0	5182	-0.007623786572366953
0	5218	0.007231239229440689
0	5204	-0.0028109815903007984
0	5202	-0.00040073200943879783
0	5230	0.005592766683548689
0	5230	0.0
0	5226	-0.00079216284211725
0	5182	-0.008676675148308277
0	5222	0.007860193960368633
0	5232	0.001958377892151475
0	5230	-0.0003904318145941943
0	5236	0.0011680726893246174
0	5228	-0.0015534785343334079
0	5226	-0.0003874817630276084
0	5282	0.010829486884176731
0	5390	0.020846469327807426
0	5314	-0.014636777341365814
0	5314	0.0
0	5228	-0.016510099172592163
0	5214	-0.00268573104403913
0	5152	-0.01188498456031084
0	5106	-0.008815187960863113
0	5054	-0.009967159479856491
0	5056	0.00038364643114618957
0	5090	0.006526997312903404
0	5116	0.004993917420506477
0	5110	-0.0011527821188792586
0	4846	-0.05074451118707657
0	5242	0.07628098130226135
0	6822	0.3042713403701782
0	7188	0.06976567208766937
1	5152	-0.3832109868526459
0	3910	-0.23386308550834656
0	4774	0.16401949524879456
0	5290	0.09822210669517517
0	5158	-0.025117022916674614
0	5090	-0.012944984249770641
0	5102	0.002286382019519806
0	5130	0.005337603390216827
0	5108	-0.0041962843388319016
0	5162	0.01030809711664915
0	5216	0.010312559083104134
0	5210	-0.001145985908806324
0	5214	0.0007640781113877892
0	5212	-0.0003820682759396732
0	5274	0.011849397793412209
0	5270	-0.0007650426123291254
0	5350	0.01530514657497406
0	5372	0.00420794915407896
0	5416	0.008408178575336933
0	5456	0.007633976172655821
0	5476	0.003809620626270771
0	5586	0.020903803408145905
0	5608	0.004166719503700733
0	5594	-0.0026423402596265078
0	5628	0.006396829150617123
0	5568	-0.011252391152083874
0	5510	-0.010846257209777832
0	5398	-0.020858164876699448
0	5270	-0.023814840242266655
0	5054	-0.04057811200618744
0	4850	-0.03884284198284149
0	4694	-0.029760390520095825
0	4590	-0.019741836935281754
0	4640	0.009502330794930458
0	4606	-0.006488301791250706
0	4614	0.0015320387901738286
0	4688	0.014214551076292992
0	4752	0.012326340191066265
0	4834	0.015831543132662773
0	4902	0.013151787221431732
0	4938	0.006974401418119669
0	4974	0.00698694447055459
0	5028	0.010496443137526512
0	5054	0.005059940740466118
0	5106	0.010130264796316624
0	5106	0.0
0	5118	0.0023428043350577354
0	5138	0.003910577856004238
0	5166	0.0054831719025969505
0	5152	-0.0027460672426968813
0	5182	0.0058961487375199795
0	5152	-0.005907527636736631
0	5182	0.005924404598772526
0	5182	0.0
0	5174	-0.001588604412972927
0	5182	0.0015933926915749907
0	5218	0.007188689894974232
0	5226	0.001600597519427538
0	5214	-0.0024036536924540997
0	5216	0.000400758784962818
0	5242	0.0052042328752577305
0	5242	0.0
0	5222	-0.003978305030614138
0	5258	0.007131066173315048
0	5270	0.0023673621471971273
0	5294	0.004714139737188816
0	5346	0.010168695822358131
0	5356	0.0019471669802442193
0	5338	-0.0034912140108644962
0	5290	-0.009279665537178516
0	5230	-0.011570652015507221
0	5218	-0.002309794770553708
0	5154	-0.012299650348722935
0	5164	0.0019202703842893243
0	5142	-0.004221622366458178
0	5180	0.00729021430015564
0	5176	-0.0007670280756428838
0	5182	0.0011501156259328127
0	5068	-0.02184605412185192
0	5398	0.0632781907916069
0	6480	0.20715005695819855
0	6606	0.023924656212329865
1	4968	-0.3081843852996826
0	4228	-0.1394157111644745
0	4968	0.14025598764419556
0	5382	0.07856979966163635
0	5266	-0.021986909210681915
0	5264	-0.0003789697075262666
0	5270	0.0011366362450644374
0	5292	0.0041661933064460754
0	5270	-0.004164195619523525
0	5254	-0.0030279706697911024
0	5288	0.006433950737118721
0	5282	-0.001134930644184351
0	5292	0.0018912648083642125
0	5302	0.0018910025246441364
0	5318	0.0030254514422267675
0	5344	0.004917226731777191
0	5350	0.0011348305270075798
0	5396	0.008699708618223667
0	5438	0.007937907241284847
0	5468	0.005662514362484217
0	5518	0.00942270178347826
0	5578	0.011281446553766727
0	5612	0.006376275327056646
0	5622	0.0018698812928050756
0	5624	0.0003729487943928689
0	5572	-0.009669740684330463
0	5492	-0.014840648509562016
0	5330	-0.029973726719617844
0	5138	-0.03553932160139084
0	4946	-0.03583604842424393
0	4770	-0.03319251537322998
0	4674	-0.018127573654055595
0	4648	-0.00489580724388361
0	4682	0.006415094248950481
0	4678	-0.0007580543751828372
0	4750	0.013695850037038326
0	4824	0.014122317545115948
0	4882	0.011100335977971554
0	4906	0.004605288617312908
0	4962	0.010770750232040882
0	4984	0.0042393021285533905
0	5046	0.011970498599112034
0	5066	0.0038673251401633024
0	5118	0.010069712996482849
0	5116	-0.0003877572016790509
0	5162	0.00893007405102253
0	5174	0.002332331147044897
0	5182	0.0015566624933853745
0	5182	0.0
0	5174	-0.0015614224830642343
0	5182	0.001564414706081152
0	5164	-0.0035276594571769238
0	5180	0.0031442008912563324
0	5182	0.0003941404283978045
0	5154	-0.005533961579203606
0	5208	0.010705788619816303
0	5182	-0.0051670684479177
0	5182	0.0
0	5204	0.004385440144687891
0	5182	-0.004383518360555172
0	5222	0.007957560010254383
0	5216	-0.0011900669196620584
0	5222	0.0011858176440000534
0	5240	0.003544051432982087
0	5252	0.002354079857468605
0	5248	-0.0007817589794285595
0	5266	0.0035065391566604376
0	5278	0.0023310023825615644
0	5370	0.017825311049818993
0	5336	-0.00656793313100934
0	5294	-0.008093836717307568
0	5242	-0.010001025162637234
0	5182	-0.011525163426995277
0	5162	-0.0038388697430491447
0	5094	-0.013048483990132809
0	5130	0.006908993236720562
0	5092	-0.007294319570064545
0	5132	0.007682261988520622
0	5182	0.00960590224713087
0	4970	-0.04072902351617813
0	4872	-0.018852194771170616
0	5770	0.17309175431728363
0	7182	0.2711109220981598
0	6876	-0.05801021307706833
1	4590	-0.4287804365158081
0	4778	0.035387568175792694
0	5200	0.0796486884355545
0	4986	-0.04038599506020546
0	4980	-0.0011337153846397996
0	5018	0.0071903420612216
0	5050	0.006061295047402382
0	5068	0.0034131850115954876
0	5088	0.003795978846028447
0	5140	0.009877919219434261
0	5126	-0.0026611248031258583
0	5158	0.006087430752813816
0	5182	0.004568180069327354
0	5216	0.006475039757788181
0	5210	-0.0011431039310991764
0	5242	0.0061027552001178265
0	5258	0.003053202060982585
0	5298	0.00763475289568305
0	5330	0.006105626933276653
0	5358	0.005337399896234274
0	5396	0.007234604563564062
0	5440	0.00836088601499796
0	5476	0.006827319506555796
0	5512	0.006810786202549934
0	5522	0.0018873622175306082
0	5480	-0.007910002022981644
0	5418	-0.01163940317928791
0	5358	-0.011225584894418716
0	5230	-0.024009602144360542
0	5064	-0.03152218088507652
0	4930	-0.02574084885418415
0	4832	-0.018784500658512115
0	4766	-0.012646423652768135
0	4790	0.004611482843756676
0	4790	0.0
0	4826	0.006934367585927248
0	4868	0.008100081235170364
0	4892	0.004634039476513863
0	4948	0.01082502119243145
0	4994	0.008900010958313942
0	4968	-0.005035181995481253
0	5004	0.006978908088058233
0	5054	0.009702583774924278
0	5042	-0.0023305495269596577
0	5066	0.004666355438530445
0	5102	0.007006071973592043
0	5080	-0.004285380244255066
0	5118	0.007410585880279541
0	5144	0.005076340399682522
0	5130	-0.002736726775765419
0	5152	0.004306969232857227
0	5152	0.0
0	5142	-0.0019645337015390396
0	5162	0.003937679808586836
0	5158	-0.000789349025581032
0	5152	-0.001186865265481174
0	5182	0.005947188939899206
0	5156	-0.005162280984222889
0	5152	-0.0007952603045850992
0	5174	0.004376193508505821
0	5156	-0.003577912226319313
0	5166	0.001984757138416171
0	5180	0.002772533567622304
0	5160	-0.003949966747313738
0	5180	0.003940369002521038
0	5152	-0.005502423737198114
0	5162	0.001960963709279895
0	5152	-0.0019572023302316666
0	5152	0.0
0	5154	0.0003902591415680945
0	5162	0.0015594136202707887
0	5178	0.0031149007845669985
0	5148	-0.005833852104842663
0	5140	-0.0015547465300187469
0	5130	-0.001942200236953795
0	5138	0.001553116599097848
0	5108	-0.005822830833494663
0	5110	0.000388118380215019
0	5106	-0.0007762769819237292
0	5068	-0.007376444526016712
0	5100	0.006214235443621874
0	5090	-0.0019426025683060288
0	5072	-0.0034980890341103077
0	5098	0.005055087152868509
0	5090	-0.0015560569008812308
0	5074	-0.0031134868040680885
0	5092	0.0035044453106820583
0	5066	-0.005064934957772493
0	5074	0.001559352851472795
0	5076	0.0003900358860846609
0	5062	-0.0027319914661347866
0	5060	-0.0003905232879333198
0	5058	-0.00039079293492250144
0	5070	0.002346622059121728
0	5064	-0.001173999859020114
0	5118	0.010573998093605042
0	5112	-0.001175149460323155
0	5152	0.007836887612938881
0	5238	0.01684930920600891
0	5152	-0.016839852556586266
0	5088	-0.012532145716249943
0	5024	-0.012538203038275242
0	5030	0.0011766398092731833
0	5004	-0.005102708004415035
0	4934	-0.013750295154750347
0	4938	0.0007867407985031605
0	4942	0.0007877737516537309
0	4994	0.010252230800688267
0	4984	-0.001973086968064308
0	4556	-0.08451594412326813
0	4992	0.08638680726289749
0	6942	0.3866388201713562
0	7668	0.14220793545246124
1	6060	-0.3097231388092041
0	4122	-0.37099429965019226
0	4778	0.12635958194732666
0	4782	0.0007719524437561631
0	4698	-0.01624339260160923
0	4776	0.015119013376533985
0	4806	0.0058262231759727
0	4888	0.01595289446413517
0	4934	0.008959293365478516
0	4964	0.0058478014543652534
0	4982	0.003510825103148818
0	5050	0.013270708732306957
0	5064	0.0027324536349624395
0	5082	0.003514389507472515
0	5112	0.00585845997557044
0	5182	0.013673298992216587
0	5212	0.005862122867256403
0	5276	0.012500976212322712
0	5308	0.006242846604436636
0	5370	0.012073217891156673
0	5396	0.005051813554018736
0	5446	0.009690423496067524
0	5508	0.011976511217653751
0	5546	0.007313599810004234
0	5562	0.0030675239395350218
0	5564	0.0003820536658167839
0	5522	-0.007993604987859726
0	5468	-0.010214891284704208
0	5356	-0.021123042330145836
0	5198	-0.030098678544163704
0	5044	-0.02980414219200611
0	4914	-0.025325331836938858
0	4828	-0.016667958348989487
0	4764	-0.012400057166814804
0	4778	0.0027128278743475676
0	4798	0.003873466746881604
0	4872	0.014329791069030762
0	4896	0.004645520821213722
0	4950	0.01045188307762146
0	4992	0.008128402754664421
0	5006	0.0027089782524853945
0	5052	0.008899551816284657
0	5086	0.006577844265848398
0	5134	0.009285050444304943
0	5152	0.0034807270858436823
0	5172	0.003866477869451046
0	5172	0.0
0	5182	0.001933861873112619
0	5236	0.010449185967445374
0	5246	0.0019359334837645292
0	5260	0.002712477231398225
0	5238	-0.00426621176302433
0	5262	0.004660314880311489
0	5280	0.0035008105915039778
0	5264	-0.0031172072049230337
0	5276	0.002342438558116555
0	5266	-0.0019556970801204443
0	5302	0.007052278146147728
0	5310	0.0015688735293224454
0	5282	-0.0054927091114223
0	5290	0.0015684838872402906
0	5306	0.0031319328118115664
0	5300	-0.0011714784195646644
0	5302	0.00038929691072553396
0	5300	-0.0003879427385982126
0	5324	0.004639653954654932
0	5294	-0.005779975559562445
0	5318	0.004611482843756676
0	5332	0.0026827803812921047
0	5328	-0.0007646429003216326
0	5330	0.0003815046511590481
0	5338	0.0015228812117129564
0	5346	0.0015201226342469454
0	5342	-0.0007588117150589824
0	5342	0.0
0	5342	0.0
0	5340	-0.0003780479892157018
0	5326	-0.0026435379404574633
0	5328	0.00037730627809651196
0	5348	0.0037708813324570656
0	5290	-0.01092854980379343
0	5308	0.003390979953110218
0	5328	0.0037661001551896334
0	5318	-0.001882270211353898
0	5298	-0.003763643093407154
0	5294	-0.0007525681285187602
0	5294	0.0
0	5286	-0.0015047022607177496
0	5260	-0.004890772979706526
0	5246	-0.0026343187782913446
0	5268	0.004140579141676426
0	5238	-0.0056470236741006374
0	5246	0.0015065156621858478
0	5242	-0.0007535132463090122
0	5236	-0.0011306958040222526
0	5226	-0.0018852510256692767
0	5234	0.001509130117483437
0	5238	0.0007548498688265681
0	5236	-0.00037761498242616653
0	5226	-0.001889216247946024
0	5242	0.0030246891546994448
0	5238	-0.0007565917912870646
0	5236	-0.00037853457615710795
0	5220	-0.0030303795356303453
0	5230	0.0018954472616314888
0	5208	-0.004172936547547579
0	5246	0.007213911507278681
0	5270	0.004558866377919912
0	5240	-0.005700604058802128
0	5292	0.009886558167636395
0	5358	0.012552779167890549
0	5354	-0.0007604465936310589
0	5320	-0.006461912766098976
0	5236	-0.01596553437411785
0	5204	-0.006085269618779421
0	5182	-0.004186117090284824
0	5094	-0.016756372526288033
0	5088	-0.0011439319932833314
0	5076	-0.0022907466627657413
0	5104	0.005351340863853693
0	5130	0.004973601549863815
0	5126	-0.000765843375120312
0	4752	-0.07165757566690445
0	4940	0.03613439202308655
0	6906	0.37860599160194397
0	7744	0.1596677154302597
1	6586	-0.21716570854187012
0	3958	-0.48871201276779175
0	4850	0.16720610857009888
0	4942	0.01728716678917408
0	4858	-0.015812061727046967
0	4882	0.004528643563389778
0	4940	0.010968782939016819
0	4974	0.0064419968985021114
0	5028	0.010247327387332916
0	5062	0.006460275966674089
0	5098	0.006846622563898563
0	5124	0.004949427209794521
0	5158	0.0064783296547830105
0	5182	0.004575321450829506
0	5236	0.010301673784852028
0	5226	-0.0019091985886916518
0	5274	0.009171624667942524
0	5314	0.007645260076969862
0	5352	0.0072593893855810165
0	5366	0.0026719938032329082
0	5426	0.011438013054430485
0	5462	0.006848359480500221
0	5544	0.015562133863568306
0	5554	0.0018922192975878716
0	5594	0.007547454908490181
0	5594	0.0
0	5498	-0.01800832897424698
0	5452	-0.008588926866650581
0	5308	-0.026801668107509613
0	5130	-0.03346158191561699
0	4942	-0.03592997416853905
0	4796	-0.028198393061757088
0	4694	-0.01959453523159027
0	4644	-0.00961476843804121
0	4648	0.0007706535398028791
0	4672	0.0046301656402647495
0	4736	0.012363805435597897
0	4808	0.013927576132118702
0	4820	0.00232374994084239
0	4878	0.011246558278799057
0	4908	0.005824111867696047
0	4946	0.007386290468275547
0	4996	0.009730024263262749
0	5052	0.010909090749919415
0	5064	0.0023396373726427555
0	5110	0.008978646248579025
0	5134	0.004688049666583538
0	5164	0.005865408573299646
0	5172	0.0015656393952667713
0	5176	0.0007837400189600885
0	5204	0.005492996424436569
0	5182	-0.004322200547903776
0	5182	0.0
0	5170	-0.002367517678067088
0	5182	0.0023735116701573133
0	5178	-0.0007933254237286747
0	5166	-0.0023865397088229656
0	5202	0.007175412494689226
0	5182	-0.003992972429841757
0	5182	0.0
0	5180	-0.00039949396159499884
0	5178	-0.00039886191370896995
0	5178	0.0
0	5182	0.000793157669249922
0	5182	0.0
0	5214	0.006300618406385183
0	5224	0.0019619641825556755
0	5206	-0.003520300379022956
0	5176	-0.005851983558386564
0	5210	0.0066169314086437225
0	5210	0.0
0	5168	-0.008140375837683678
0	5206	0.007354553788900375
0	5172	-0.00657148752361536
0	5182	0.0019312973599880934
0	5182	0.0
0	5182	0.0
0	5166	-0.0030853485222905874
0	5180	0.002699645236134529
0	5164	-0.0030851501505821943
0	5170	0.0011570205679163337
0	5180	0.0019287890754640102
0	5182	0.00038576280348934233
0	5200	0.0034718650858849287
0	5182	-0.003471195697784424
0	5182	0.0
0	5166	-0.0030854279175400734
0	5182	0.0030854279175400734
0	5210	0.005400192923843861
0	5182	-0.005399221088737249
0	5206	0.004627903923392296
0	5212	0.0011567826149985194
0	5212	0.0
0	5206	-0.0011562772560864687
0	5218	0.0023121980484575033
0	5208	-0.0019263862632215023
0	5182	-0.005008797626942396
0	5212	0.005780940875411034
0	5172	-0.007707624230533838
0	5178	0.0011561732972040772
0	5164	-0.0026982922572642565
0	5174	0.001927921548485756
0	5166	-0.0015422777505591512
0	5160	-0.0011570056667551398
0	5152	-0.0015427932376042008
0	5178	0.005015045404434204
0	5172	-0.001157347927801311
0	5180	0.0015432297950610518
0	5172	-0.0015430907951667905
0	5216	0.00848743598908186
0	5300	0.016197871416807175
0	5304	0.000770683167502284
0	5260	-0.008470769040286541
0	5170	-0.01731790602207184
0	5106	-0.012317325919866562
0	5098	-0.0015404167352244258
0	5038	-0.011559356935322285
0	5012	-0.005013175308704376
0	5012	0.0
0	5022	0.001932715647853911
0	5062	0.007738839834928513
0	5086	0.0046476200222969055
0	4962	-0.02403225004673004
0	4710	-0.048918742686510086
0	5516	0.15696610510349274
0	7482	0.382133424282074
0	7524	0.00804505217820406
1	4570	-0.5574987530708313
0	4362	-0.03941434249281883
0	5044	0.12989816069602966
0	4924	-0.02287544496357441
0	4882	-0.008018634282052517
0	4910	0.005355707835406065
0	4954	0.008429872803390026
0	5034	0.015347231179475784
0	5062	0.005375586915761232
0	5094	0.006148091983050108
0	5152	0.011148986406624317
0	5152	0.0
0	5180	0.005383925512433052
0	5224	0.008462405763566494
0	5266	0.008081689476966858
0	5266	0.0
0	5304	0.007313505746424198
0	5350	0.008845586329698563
0	5372	0.004223891533911228
0	5454	0.015716038644313812
0	5494	0.007646039128303528
0	5560	0.012577338144183159
0	5582	0.004177902825176716
0	5612	0.005677015520632267
0	5638	0.004903070162981749
0	5614	-0.0045102606527507305
0	5550	-0.011978439055383205
0	5438	-0.020852986723184586
0	5282	-0.02905929833650589
0	5068	-0.040415484458208084
0	4858	-0.040282875299453735
0	4696	-0.031018240377306938
0	4610	-0.016431447118520737
0	4602	-0.0015327432192862034
0	4610	0.0015359017997980118
0	4626	0.003077159635722637
0	4698	0.013872476294636726
0	4740	0.008105603978037834
0	4796	0.010827952064573765
0	4830	0.006585403811186552
0	4890	0.011641142889857292
0	4934	0.008551327511668205
0	4984	0.00973116047680378
0	5004	0.003897419897839427
0	5060	0.010928393341600895
0	5088	0.005471528507769108
0	5088	0.0
0	5096	0.0015673162415623665
0	5118	0.00431728083640337
0	5090	-0.005503865424543619
0	5130	0.007881462574005127
0	5114	-0.003160140011459589
0	5152	0.007527435198426247
0	5136	-0.0031784712336957455
0	5136	0.0
0	5164	0.005598581861704588
0	5152	-0.0024066101759672165
0	5162	0.002010858617722988
0	5168	0.0012087514623999596
0	5182	0.002822580747306347
0	5178	-0.0008058342500589788
0	5182	0.0008041062974371016
0	5164	-0.00360673270188272
0	5166	0.0003992706770077348
0	5204	0.007557777687907219
0	5182	-0.004358391743153334
0	5204	0.004342447966337204
0	5216	0.002360748592764139
0	5214	-0.00039223377825692296
0	5182	-0.006258638575673103
0	5212	0.005854039452970028
0	5228	0.003115628845989704
0	5214	-0.0027209825348109007
0	5234	0.0038813345599919558
0	5224	-0.0019377842545509338
0	5236	0.002322880318388343
0	5230	-0.0011603321181610227
0	5240	0.001932118320837617
0	5232	-0.0015442623989656568
0	5250	0.0034720436669886112
0	5246	-0.0007707722834311426
0	5232	-0.0026956945657730103
0	5226	-0.0011544233420863748
0	5238	0.0023077514488250017
0	5232	-0.0011531218187883496
0	5220	-0.002304825931787491
0	5210	-0.0019199999514967203
0	5216	0.0011515725636854768
0	5230	0.0026860744692385197
0	5210	-0.0038357286248356104
0	5222	0.002301025204360485
0	5222	0.0
0	5244	0.00421628262847662
0	5224	-0.003831026377156377
0	5182	-0.008042176254093647
0	5226	0.008426320739090443
0	5210	-0.0030632561538368464
0	5210	0.0
0	5208	-0.0003829070192296058
0	5212	0.000765843375120312
0	5216	0.0007656968082301319
0	5204	-0.002297031693160534
0	5220	0.0030631779227405787
0	5208	-0.0022972957231104374
0	5174	-0.006510084494948387
0	5222	0.009193641133606434
0	5210	-0.002298615872859955
0	5242	0.006130424793809652
0	5230	-0.002298880135640502
0	5316	0.01647551730275154
0	5402	0.016468575224280357
0	5354	-0.009182619862258434
0	5270	-0.01605709083378315
0	5178	-0.017581410706043243
0	5170	-0.0015294027980417013
0	5140	-0.005737527273595333
0	5066	-0.014159788377583027
0	4990	-0.014555854722857475
0	5072	0.01572769321501255
0	5094	0.004223891533911228
0	5098	0.0007685509044677019
0	5090	-0.0015383234713226557
0	4738	-0.06774354726076126
0	5266	0.10194624215364456
0	7360	0.4042002856731415
0	7592	0.04416355490684509
1	4772	-0.5288755893707275
0	4194	-0.10869837552309036
0	4972	0.14724808931350708
0	4964	-0.001516376854851842
0	4910	-0.010251606814563274
0	4950	0.0076085166074335575
0	4978	0.005334552843123674
0	5028	0.009540649130940437
0	5044	0.0030565070919692516
0	5094	0.00955949816852808
0	5152	0.011098071001470089
0	5156	0.0007656674133613706
0	5182	0.004979570861905813
0	5182	0.0
0	5232	0.009587237611413002
0	5296	0.012285011820495129
0	5318	0.004224540665745735
0	5356	0.0072946930304169655
0	5388	0.0061359102837741375
0	5442	0.010339940898120403
0	5514	0.013760065659880638
0	5532	0.0034302265848964453
0	5584	0.009875543415546417
0	5618	0.006436224561184645
0	5646	0.005282951984554529
0	5640	-0.001128172967582941
0	5572	-0.012742036953568459
0	5450	-0.022742241621017456
0	5258	-0.035750195384025574
0	5072	-0.03509080782532692
0	4884	-0.036039259284734726
0	4734	-0.02873416431248188
0	4608	-0.02405375801026821
0	4542	-0.01262883935123682
0	4540	-0.0003837249241769314
0	4592	0.010000512935221195
0	4630	0.0073248776607215405
0	4708	0.015068968757987022
0	4766	0.011228269897401333
0	4796	0.0058181630447506905
0	4866	0.013601916842162609
0	4908	0.008176296949386597
0	4986	0.015209026634693146
0	4984	-0.00039047247264534235
0	5040	0.010947335511446
0	5030	-0.0019573301542550325
0	5106	0.014901570975780487
0	5094	-0.0023561441339552402
0	5106	0.0023601914290338755
0	5106	0.0
0	5140	0.006714413408190012
0	5114	-0.005147223826497793
0	5152	0.007543673738837242
0	5152	0.0
0	5132	-0.0039940886199474335
0	5152	0.004007801879197359
0	5152	0.0
0	5158	0.001209677429869771
0	5168	0.002020093146711588
0	5182	0.002829845529049635
0	5204	0.004443606827408075
0	5210	0.001209287322126329
0	5206	-0.0008036216604523361
0	5230	0.004802497569471598
0	5206	-0.004780558869242668
0	5238	0.0063460166566073895
0	5240	0.0003949395031668246
0	5214	-0.005113681312650442
0	5228	0.0027444164734333754
0	5238	0.0019543974194675684
0	5210	-0.005456600803881884
0	5224	0.002722217235714197
0	5244	0.0038809331599622965
0	5248	0.000774893444031477
0	5266	0.00348108634352684
0	5236	-0.0057933698408305645
0	5242	0.0011571395443752408
0	5210	-0.006166019942611456
0	5220	0.0019254466751590371
0	5230	0.0019240389810875058
0	5214	-0.003076016204431653
0	5228	0.002690238179638982
0	5232	0.000768078665714711
0	5218	-0.0026868993882089853
0	5182	-0.006906254217028618
0	5218	0.006904046516865492
0	5224	0.0011501892004162073
0	5220	-0.0007664401782676578
0	5228	0.0015322734834626317
0	5216	-0.002297530183568597
0	5182	-0.006508256774395704
0	5204	0.004211816005408764
0	5182	-0.004211977124214172
0	5206	0.004595588427037001
0	5182	-0.004596292041242123
0	5182	0.0
0	5210	0.0053650811314582825
0	5182	-0.005366109311580658
0	5178	-0.0007667437894269824
0	5218	0.007669887505471706
0	5204	-0.002684804145246744
0	5208	0.0007671162602491677
0	5182	-0.004986766260117292
0	5228	0.008826238103210926
0	5230	0.0003837985568679869
0	5292	0.011900496669113636
0	5350	0.011128734797239304
0	5336	-0.002684392035007477
0	5280	-0.010728929191827774
0	5174	-0.020300550386309624
0	5162	-0.0022989974822849035
0	5110	-0.009965632110834122
0	5072	-0.007288070395588875
0	4998	-0.014207091182470322
0	5024	0.004998717922717333
0	5042	0.0034641586244106293
0	5072	0.0057801236398518085
0	5068	-0.0007714363164268434
0	4790	-0.05366726219654083
0	5008	0.04220334812998772
0	7234	0.431518018245697
0	7744	0.09757155925035477
1	5668	-0.3908426761627197
0	4092	-0.2958069145679474
0	4956	0.16330645978450775
0	5032	0.014385403133928776
0	4942	-0.01705148257315159
0	4992	0.009489106014370918
0	5016	0.00456025218591094
0	5054	0.007227815687656403
0	5084	0.0057121096178889275
0	5100	0.0030487803742289543
0	5152	0.009915338829159737
0	5166	0.0026700233574956656
0	5206	0.007631645537912846
0	5216	0.0019082027720287442
0	5240	0.004581901710480452
0	5274	0.006495574023574591
0	5328	0.010320574976503849
0	5346	0.0034391400404274464
0	5374	0.005343919154256582
0	5442	0.01296060997992754
0	5480	0.007227449212223291
0	5554	0.014038193970918655
0	5616	0.011720522306859493
0	5628	0.002260057255625725
0	5658	0.005629433318972588
0	5624	-0.006356724537909031
0	5578	-0.008570576086640358
0	5456	-0.022619958966970444
0	5274	-0.033651359379291534
0	5040	-0.04379507154226303
0	4838	-0.03845470771193504
0	4664	-0.03329973667860031
0	4546	-0.022500475868582726
0	4484	-0.011853174306452274
0	4478	-0.0011511011980473995
0	4494	0.0030787389259785414
0	4590	0.01853162609040737
0	4648	0.011226965114474297
0	4688	0.007763070985674858
0	4754	0.01284196600317955
0	4808	0.01053069531917572
0	4842	0.006645297631621361
0	4884	0.008226261474192142
0	4926	0.008243591524660587
0	4968	0.008259261958301067
0	4962	-0.0011820020154118538
0	5028	0.01302871573716402
0	5032	0.0007911809370853007
0	5022	-0.001982055837288499
0	5032	0.0019866761285811663
0	5062	0.005976254120469093
0	5058	-0.0007990518352016807
0	5088	0.006012747064232826
0	5080	-0.0016090752324089408
0	5086	0.0012112566037103534
0	5084	-0.0004053122829645872
0	5094	0.002033981028944254
0	5094	0.0
0	5130	0.007364573888480663
0	5152	0.0045049963518977165
0	5152	0.0
0	5156	0.0008167154737748206
0	5130	-0.005290933419018984
0	5152	0.004459278658032417
0	5146	-0.0012107026996091008
0	5182	0.007231723051518202
0	5162	-0.0039992001838982105
0	5170	0.0015936042182147503
0	5236	0.013101823627948761
0	5182	-0.010680942796170712
0	5200	0.003550295950844884
0	5204	0.0007869264809414744
0	5182	-0.004317845683544874
0	5228	0.00901065580546856
0	5182	-0.00899292342364788
0	5182	0.0
0	5218	0.007018091157078743
0	5182	-0.007009437307715416
0	5182	0.0
0	5204	0.004274943843483925
0	5180	-0.004658385179936886
0	5182	0.0003879026335198432
0	5182	0.0
0	5182	0.0
0	5182	0.0
0	5182	0.0
0	5172	-0.0019330892246216536
0	5182	0.001932118320837617
0	5182	0.0
0	5182	0.0
0	5182	0.0
0	5182	0.0
0	5182	0.0
0	5200	0.0034715973306447268
0	5182	-0.003470526309683919
0	5182	0.0
0	5182	0.0
0	5182	0.0
0	5182	0.0
0	5182	0.0
0	5174	-0.0015423173317685723
0	5206	0.006170300301164389
0	5210	0.0007712775841355324
0	5210	0.0
0	5318	0.0208231583237648
0	5400	0.015796367079019547
0	5316	-0.016159024089574814
0	5252	-0.012303906492888927
0	5172	-0.01537298783659935
0	5180	0.0015373971546068788
0	5102	-0.01499192789196968
0	5054	-0.009230413474142551
0	5022	-0.006158662959933281
0	5034	0.002311871387064457
0	5068	0.006556534208357334
0	5090	0.0042455741204321384
0	5078	-0.0023171391803771257
0	4750	-0.06337348371744156
0	5234	0.0937754288315773
0	7098	0.3610303997993469
0	7736	0.12206165492534637
1	5042	-0.5071536302566528
0	4180	-0.16241677105426788
0	5042	0.163445383310318
0	5024	-0.0034164241515100002
0	4948	-0.014439336024224758
0	4958	0.0019027322996407747
0	5012	0.010289372876286507
0	5042	0.005722497124224901
0	5092	0.009545993059873581
0	5112	0.0038205855526030064
0	5158	0.008790817111730576
0	5180	0.004205589648336172
0	5222	0.008030388504266739
0	5226	0.0007647403981536627
0	5280	0.010330051183700562
0	5286	0.001148662413470447
0	5358	0.013786588795483112
0	5384	0.004975124262273312
0	5400	0.0030574805568903685
0	5474	0.014121059328317642
0	5514	0.007614986505359411
0	5580	0.012528156861662865
0	5648	0.012862385250627995
0	5686	0.007160084322094917
0	5694	0.001501557882875204
0	5682	-0.0022438575979322195
0	5604	-0.014530370011925697
0	5494	-0.020383456721901894
0	5332	-0.029971137642860413
0	5110	-0.04152378439903259
0	4926	-0.034988973289728165
0	4704	-0.0422460176050663
0	4602	-0.019346028566360474
0	4562	-0.007607840932905674
0	4576	0.00267056655138731
0	4634	0.011090007610619068
0	4686	0.009963340125977993
0	4736	0.009600123390555382
0	4802	0.012697027996182442
0	4860	0.01117878407239914
0	4938	0.015057914890348911
0	4958	0.003866477869451046
0	5018	0.011616051197052002
0	5052	0.006591105833649635
0	5062	0.0019407427171245217
0	5092	0.00583045044913888
0	5116	0.004670230206102133
0	5134	0.0035081792157143354
0	5160	0.005075613968074322
0	5152	-0.0015641701174899936
0	5156	0.0007837297744117677
0	5182	0.005106182303279638
0	5164	-0.0035442837979644537
0	5182	0.0035555788781493902
0	5182	0.0
0	5204	0.004374974872916937
0	5204	0.0
0	5218	0.002800373360514641
0	5224	0.0012023727176710963
0	5218	-0.001203240710310638
0	5226	0.0016031635459512472
0	5250	0.004799872171133757
0	5252	0.00039853868656791747
0	5266	0.0027777778450399637
0	5234	-0.006319780834019184
0	5286	0.010225350968539715
0	5262	-0.004699309356510639
0	5246	-0.0031211390160024166
0	5260	0.0027219702024012804
0	5254	-0.0011631062952801585
0	5256	0.000386717525543645
0	5250	-0.0011577795958146453
0	5260	0.0019260152475908399
0	5252	-0.001538422075100243
0	5258	0.001152339274995029
0	5260	0.00038363170460797846
0	5262	0.0003832200891338289
0	5270	0.0015314522897824645
0	5254	-0.0030602484475821257
0	5294	0.007646039128303528
0	5262	-0.006111301947385073
0	5282	0.0038169880863279104
0	5254	-0.005340385716408491
0	5264	0.0019061899511143565
0	5256	-0.0015241579385474324
0	5234	-0.004189465660601854
0	5262	0.005331031978130341
0	5252	-0.001903239288367331
0	5240	-0.002283394569531083
0	5258	0.0034247443545609713
0	5224	-0.006467320956289768
0	5236	0.002282612957060337
0	5248	0.002282815519720316
0	5232	-0.0030438313260674477
0	5210	-0.004186170641332865
0	5232	0.004186807665973902
0	5218	-0.002665245207026601
0	5216	-0.0003808556357398629
0	5248	0.006094851065427065
0	5250	0.0003809572372119874
0	5264	0.0026667683850973845
0	5288	0.0045713703148067
0	5382	0.017900215461850166
0	5414	0.006088975351303816
0	5330	-0.015967153012752533
0	5236	-0.01785985566675663
0	5182	-0.010261477902531624
0	5158	-0.0045629688538610935
0	5080	-0.014840182848274708
0	5062	-0.00342844077385962
0	5068	0.0011444994015619159
0	5084	0.0030557678546756506
0	5092	0.0015298122307285666
0	5112	0.0038284838665276766
0	4894	-0.04177099093794823
0	4838	-0.010755028575658798
0	6342	0.2895834743976593
0	7802	0.2791765034198761
1	6958	-0.15880583226680756
0	3422	-0.658236026763916
0	4254	0.15666386485099792
0	5108	0.16179145872592926
0	5026	-0.01554757822304964
0	4968	-0.011012518778443336
0	5008	0.007607552222907543
0	5044	0.006855575833469629
0	5052	0.001525281579233706
0	5108	0.01068824715912342
0	5112	0.0007639711257070303
0	5152	0.007646331563591957
0	5160	0.0015302218962460756
0	5168	0.0015312372706830502
0	5202	0.006512744817882776
0	5228	0.00498606450855732
0	5254	0.004991999827325344
0	5316	0.011909793131053448
0	5328	0.0023039409425109625
0	5370	0.00805626530200243
0	5438	0.01302582211792469
0	5484	0.008791488595306873
0	5548	0.012198841199278831
0	5578	0.005700821056962013
0	5636	0.010987206362187862
0	5610	-0.0049084387719631195
0	5612	0.0003763926506508142
0	5500	-0.02098347619175911
0	5356	-0.02686767652630806
0	5178	-0.03341635316610336
0	4950	-0.04351754114031792
0	4748	-0.039053939282894135
0	4586	-0.031055107712745667
0	4452	-0.025633176788687706
0	4410	-0.008068027906119823
0	4418	0.0015428527258336544
0	4470	0.010064126923680305
0	4556	0.01670248992741108
0	4614	0.011300168931484222
0	4654	0.007815450429916382
0	4708	0.010582149028778076
0	4760	0.010217180475592613
0	4814	0.01063746027648449
0	4866	0.010266805067658424
0	4914	0.009495925158262253
0	4942	0.005549829453229904
0	4970	0.005560336634516716
0	5002	0.006366638466715813
0	5012	0.001993726473301649
0	5036	0.0047950129956007
0	5034	-0.00040047522634267807
0	5056	0.004417138639837503
0	5072	0.003221692517399788
0	5082	0.0020200114231556654
0	5090	0.0016214244533330202
0	5128	0.007730280980467796
0	5098	-0.006122865714132786
0	5108	0.002048117108643055
0	5160	0.010678787715733051
0	5152	-0.001645097741857171
0	5134	-0.0037021292373538017
0	5152	0.0036974649410694838
0	5164	0.0024581770412623882
0	5180	0.0032646844629198313
0	5152	-0.0056850481778383255
0	5174	0.004444504622370005
0	5182	0.0016079971101135015
0	5214	0.006401450838893652
0	5174	-0.007966858334839344
0	5210	0.007143612951040268
0	5216	0.001186239649541676
0	5182	-0.006699595600366592
0	5182	0.0
0	5182	0.0
0	5214	0.00626002624630928
0	5202	-0.00234292633831501
0	5206	0.0007796561694703996
0	5178	-0.005449237767606974
0	5208	0.005831810180097818
0	5216	0.0015531769022345543
0	5212	-0.0007756848353892565
0	5202	-0.0019369835499674082
0	5226	0.004644382279366255
0	5210	-0.003093182109296322
0	5234	0.004635949619114399
0	5218	-0.003087769728153944
0	5212	-0.001157243736088276
0	5230	0.003469188464805484
0	5222	-0.001540653989650309
0	5224	0.00038501026574522257
0	5200	-0.004617989528924227
0	5226	0.005000705365091562
0	5228	0.00038448721170425415
0	5216	-0.002305977512151003
0	5224	0.0015369639731943607
0	5218	-0.0011521916603669524
0	5228	0.001919778878800571
0	5242	0.0026868993882089853
0	5230	-0.002302644308656454
0	5348	0.022634560242295265
0	5414	0.01264884788542986
0	5374	-0.007656283676624298
0	5346	-0.0053528412245213985
0	5214	-0.025208478793501854
0	5206	-0.0015274755423888564
0	5166	-0.0076377661898732185
0	5094	-0.013751130551099777
0	5048	-0.008791712112724781
0	5082	0.006503609009087086
0	5108	0.0049773468635976315
