0	4674	-0.0362120047211647
0	4614	-0.010877842083573341
0	4598	-0.0028984807431697845
0	4636	0.006920163054019213
0	4674	0.006959792226552963
0	4732	0.010685203596949577
0	4824	0.017041034996509552
0	4862	0.0070739793591201305
0	4926	0.011969328857958317
0	4978	0.009765625
0	5026	0.009048976935446262
0	5090	0.012108064256608486
0	5090	0.0
0	5152	0.011799784377217293
0	5172	0.003816259792074561
0	5182	0.0019129724241793156
0	5200	0.0034519792534410954
0	5230	0.005767456255853176
0	5200	-0.005783913191407919
0	5204	0.00077366444747895
0	5202	-0.00038819373003207147
0	5220	0.0035077689681202173
0	5234	0.0027391898911446333
0	5234	0.0
0	5288	0.010646267794072628
0	5278	-0.0019772485829889774
0	5300	0.004360292572528124
0	5452	0.030172700062394142
0	5430	-0.004364848602563143
0	5342	-0.017417235299944878
0	5370	0.005524716340005398
0	5246	-0.02435511164367199
0	5172	-0.014474610798060894
0	5154	-0.003507723566144705
0	5158	0.0007768800714984536
0	5138	-0.003872266970574856
0	5154	0.0030897175893187523
0	5182	0.005395544692873955
0	5216	0.006538293790072203
0	5218	0.0003838919219560921
0	5236	0.0034497298765927553
0	5342	0.020287858322262764
0	6082	0.1414048671722412
0	7840	0.3338228166103363
0	7070	-0.1437675803899765
1	4306	-0.5100446343421936
0	2654	-0.3064973056316376
0	4126	0.27747058868408203
0	5264	0.21601033210754395
0	5520	0.04857316240668297
0	5560	0.007574419025331736
0	5590	0.005668005906045437
0	5578	-0.0022619315423071384
0	5598	0.003761755535379052
0	5568	-0.005629785358905792
0	5580	0.0022479768376797438
0	5534	-0.008601024746894836
0	5552	0.0033607168588787317
0	5568	0.0029854457825422287
0	5566	-0.0003728607262019068
0	5566	0.0
0	5590	0.004462681245058775
0	5590	0.0
0	5630	0.0074028377421200275
0	5696	0.012178919278085232
0	5772	0.013977954164147377
0	5814	0.0076947505585849285
0	5842	0.005109240300953388
0	5838	-0.0007269731140695512
0	5856	0.0032590983901172876
0	5798	-0.01046125777065754
0	5734	-0.011504583992064
0	5582	-0.027259357273578644
0	5388	-0.03489585220813751
0	5152	-0.0430840402841568
0	4924	-0.042115114629268646
0	4722	-0.037171073257923126
0	4622	-0.018171025440096855
0	4554	-0.012319287285208702
0	4558	0.0007277844124473631
0	4628	0.012810970656573772
0	4682	0.009939259849488735
0	4742	0.011105489917099476
0	4808	0.012279374524950981
0	4880	0.013461634516716003
0	4956	0.014270692132413387
0	4972	0.0030161363538354635
0	5032	0.011350594460964203
0	5064	0.0060735661536455154
0	5132	0.01294761337339878
0	5138	0.0011455919593572617
0	5140	0.0003829070192296058
0	5156	0.0030720785725861788
0	5152	-0.0007701588911004364
0	5178	0.005021438002586365
0	5152	-0.005038239061832428
0	5178	0.0050584967248141766
0	5160	-0.003516540862619877
0	5204	0.008634336292743683
0	5178	-0.005123354960232973
0	5182	0.0007917342591099441
0	5252	0.013911891728639603
0	5264	0.0023925353307276964
0	5276	0.0023976024240255356
0	5318	0.008397872559726238
0	5368	0.00998641923069954
0	5406	0.007567309308797121
0	5520	0.022599318996071815
0	5466	-0.010641791857779026
0	5514	0.009403037838637829
0	5386	-0.024919206276535988
0	5342	-0.008524048142135143
0	5182	-0.03086499124765396
0	5054	-0.02462233044207096
0	5152	0.018821781501173973
0	5152	0.0
0	5152	0.0
0	5178	0.004972903989255428
0	5204	0.004968279041349888
0	5238	0.006491192150861025
0	5262	0.004578929394483566
0	5284	0.004194044508039951
0	5692	0.07770934700965881
0	7200	0.28624576330184937
0	8072	0.16340400278568268
1	5210	-0.526787281036377
0	2330	-0.5299118161201477
0	3614	0.24045245349407196
0	5096	0.28023600578308105
0	5592	0.09385407716035843
0	5580	-0.002264749025925994
0	5646	0.012425011023879051
0	5724	0.014647887088358402
0	5708	-0.0029960675165057182
0	5666	-0.00784352794289589
0	5616	-0.009317348711192608
0	5590	-0.004837569314986467
0	5604	0.002601875690743327
0	5598	-0.0011145096505060792
0	5618	0.003711998462677002
0	5618	0.0
0	5626	0.0014817193150520325
0	5662	0.006656066048890352
0	5684	0.0040555982850492
0	5714	0.005509034730494022
0	5746	0.005856157746165991
0	5854	0.019693175330758095
0	5906	0.009441613219678402
0	5932	0.004700097721070051
0	5926	-0.0010799006558954716
0	5882	-0.007886718027293682
0	5772	-0.019644027575850487
0	5700	-0.01282066572457552
0	5516	-0.03276236355304718
0	5268	-0.044603779911994934
0	5010	-0.04719569534063339
0	4796	-0.03919462114572525
0	4614	-0.0328393392264843
0	4522	-0.016500860452651978
0	4508	-0.0025196471251547337
0	4528	0.00362305692397058
0	4588	0.010938658379018307
0	4656	0.012477369047701359
0	4710	0.009973649866878986
0	4792	0.015238802880048752
0	4830	0.007100326474756002
0	4898	0.012768355198204517
0	4934	0.0067891222424805164
0	4972	0.007196606136858463
0	5026	0.010267331264913082
0	5042	0.0030536295380443335
0	5066	0.004597289953380823
0	5110	0.008458610624074936
0	5090	-0.0038584712892770767
0	5102	0.002323959954082966
0	5112	0.0019443148048594594
0	5140	0.005466543138027191
0	5170	0.005884353071451187
0	5182	0.002365122316405177
0	5180	-0.00039613895933143795
0	5170	-0.0019904987420886755
0	5182	0.0023999360855668783
0	5182	0.0
0	5214	0.006447453051805496
0	5236	0.004441632889211178
0	5222	-0.002827102318406105
0	5244	0.0044362591579556465
0	5266	0.0044229403138160706
0	5328	0.012410425581037998
0	5308	-0.003981948830187321
0	5448	0.02772643230855465
0	5490	0.008267716504633427
0	5424	-0.012915682047605515
0	5400	-0.004673200659453869
0	5304	-0.018609460443258286
0	5182	-0.02357153780758381
0	5166	-0.0030843571294099092
0	5160	-0.0011546455789357424
0	5170	0.0019216234795749187
0	5206	0.0069090817123651505
0	5218	0.0023003784008324146
0	5236	0.0034466912038624287
0	5216	-0.0038255057297647
0	5262	0.00879272073507309
0	5298	0.006873726844787598
0	5390	0.017544304952025414
0	5902	0.0974656417965889
0	7396	0.283033162355423
0	7970	0.10723493248224258
1	4356	-0.663646936416626
0	2638	-0.31707945466041565
0	3982	0.25197795033454895
0	5280	0.2451924979686737
0	5588	0.05814538523554802
0	5704	0.021847495809197426
0	5684	-0.0037557745818048716
0	5670	-0.002621461171656847
0	5648	-0.00410851463675499
0	5654	0.0011178457643836737
0	5638	-0.0029748992528766394
0	5664	0.00482434406876564
0	5630	-0.006300341337919235
0	5580	-0.009257202036678791
0	5598	0.0033293874002993107
0	5640	0.007759098429232836
0	5630	-0.001843589823693037
0	5660	0.005515584722161293
0	5714	0.009898086078464985
0	5758	0.008037899620831013
0	5784	0.004732722882181406
0	5840	0.0101579325273633
0	5870	0.0054213604889810085
0	5856	-0.0025203428231179714
0	5816	-0.00717342970892787
0	5764	-0.009294676594436169
0	5656	-0.01925087906420231
0	5468	-0.033457912504673004
0	5274	-0.03461483493447304
0	5036	-0.04300842434167862
0	4872	-0.03016924299299717
0	4724	-0.027140026912093163
0	4638	-0.015571999363601208
0	4584	-0.009739205241203308
0	4614	0.005433404818177223
0	4624	0.0018218476325273514
0	4710	0.015771329402923584
0	4776	0.012176073156297207
0	4882	0.01966361701488495
0	4856	-0.0048461053520441055
0	4956	0.01873173750936985
0	5034	0.01467323862016201
0	5058	0.0045327492989599705
0	5050	-0.001516376854851842
0	5094	0.008368094451725483
0	5152	0.011066026985645294
0	5182	0.0057416269555687904
0	5176	-0.0011516166850924492
0	5134	-0.00808635726571083
0	5176	0.008116569370031357
0	5180	0.0007759155705571175
0	5162	-0.003505309810861945
0	5134	-0.005476808175444603
0	5176	0.0082548251375556
0	5182	0.00118453789036721
0	5182	0.0
0	5172	-0.001990155316889286
0	5206	0.006788324099034071
0	5212	0.0012000319547951221
0	5256	0.008803874254226685
0	5272	0.0031967181712388992
0	5262	-0.0019926405511796474
0	5358	0.01906123384833336
0	5430	0.014228124171495438
0	5376	-0.010611956007778645
0	5322	-0.010559248737990856
0	5334	0.0023358725011348724
0	5208	-0.024427756667137146
0	5086	-0.023586424067616463
0	5072	-0.002703085308894515
0	5134	0.011954188346862793
0	5116	-0.003466605208814144
0	5152	0.0069295624271035194
0	5162	0.0019237181404605508
0	5152	-0.0019223375711590052
0	5196	0.008455143310129642
0	5226	0.0057632457464933395
0	5274	0.009218595921993256
0	5766	0.09443136304616928
0	7966	0.420553594827652
1	6956	-0.18969985842704773
0	2474	-0.83255934715271
0	2550	0.014356417581439018
0	3752	0.23081354796886444
0	5178	0.2763458788394928
0	5602	0.08216948062181473
0	5642	0.007730862591415644
0	5668	0.005009891465306282
0	5634	-0.006532013416290283
0	5642	0.0015328018926084042
0	5598	-0.008409678004682064
0	5612	0.002670261077582836
0	5572	-0.007612377405166626
0	5574	0.0003801028651650995
0	5580	0.001139269326813519
0	5602	0.004171933978796005
0	5572	-0.005678950343281031
0	5588	0.003024231642484665
0	5610	0.0041483864188194275
0	5636	0.004886544309556484
0	5696	0.011236937716603279
0	5746	0.009331376291811466
0	5820	0.013756521977484226
0	5844	0.004443183075636625
0	5840	-0.0007374268607236445
0	5824	-0.002937288722023368
0	5750	-0.013532954268157482
0	5678	-0.013125273399055004
0	5514	-0.029823241755366325
0	5330	-0.033511415123939514
0	5092	-0.04405123367905617
0	4894	-0.037074025720357895
0	4674	-0.040580421686172485
0	4558	-0.02112111821770668
0	4562	0.000724768964573741
0	4546	-0.0029099020175635815
0	4554	0.0014643253525719047
0	4650	0.017689330503344536
0	4768	0.02187994308769703
0	4830	0.01155810710042715
0	4906	0.01423985417932272
0	4916	0.0018817979143932462
0	4992	0.014364376664161682
0	5040	0.009105510078370571
0	5068	0.005329543258994818
0	5076	0.0015276893973350525
0	5108	0.006131286267191172
0	5176	0.013067709282040596
0	5176	0.0
0	5204	0.005410139914602041
0	5162	-0.00813785195350647
0	5194	0.006221727002412081
0	5198	0.0007805080967955291
0	5210	0.0023510358296334743
0	5182	-0.005508557893335819
0	5200	0.003556562354788184
0	5182	-0.0035712397657334805
0	5216	0.0067711095325648785
0	5250	0.006791940424591303
0	5238	-0.0024013768415898085
0	5242	0.0008009504526853561
0	5256	0.002800522604957223
0	5316	0.011973339132964611
0	5364	0.009537939913570881
0	5362	-0.0003953037958126515
0	5336	-0.005112004932016134
0	5458	0.023863548412919044
0	5516	0.011278487741947174
0	5440	-0.014696214348077774
0	5468	0.005391043145209551
0	5338	-0.0249277725815773
0	5178	-0.030595853924751282
0	5152	-0.004963536746799946
0	5134	-0.003432799829170108
0	5156	0.004193138796836138
0	5202	0.008762571960687637
0	5202	0.0
0	5198	-0.000760899914894253
0	5226	0.005325556267052889
0	5236	0.0019013816490769386
0	5286	0.009504980407655239
0	5512	0.0429287813603878
0	6450	0.17781540751457214
0	8191	0.3274484872817993
1	5622	-0.4743148684501648
0	2282	-0.6149993538856506
0	3518	0.23173697292804718
0	5136	0.30654585361480713
0	5634	0.094398632645607
0	5702	0.012858575209975243
0	5718	0.003016724018380046
0	5716	-0.0003759657556656748
0	5708	-0.0014995407545939088
0	5662	-0.008601292967796326
0	5650	-0.0022396554704755545
0	5640	-0.0018630415434017777
0	5656	0.002975249430164695
0	5604	-0.009657708927989006
0	5638	0.006311217322945595
0	5600	-0.0070450822822749615
0	5646	0.008521306328475475
0	5610	-0.006656189449131489
0	5668	0.010695384815335274
0	5724	0.010293927974998951
0	5760	0.006593688391149044
0	5844	0.015328747220337391
0	5876	0.00581680703908205
0	5894	0.003258646000176668
0	5876	-0.0032450167927891016
0	5806	-0.01257040910422802
0	5760	-0.00823246594518423
0	5620	-0.024984683841466904
0	5440	-0.032102540135383606
0	5210	-0.041267696768045425
0	4988	-0.040555354207754135
0	4726	-0.048048119992017746
0	4584	-0.02565801329910755
0	4530	-0.009695025160908699
0	4518	-0.0021622921340167522
0	4610	0.016689442098140717
0	4642	0.0058436100371181965
0	4708	0.012131906114518642
0	4768	0.011097547598183155
0	4826	0.010790162719786167
0	4904	0.01458652876317501
0	4938	0.0063879359513521194
0	5014	0.014341968111693859
0	5052	0.007200060412287712
0	5098	0.008746355772018433
0	5100	0.0003815822710748762
0	5130	0.005741993431001902
0	5158	0.0053768944926559925
0	5132	-0.005007318686693907
0	5152	0.0038650829810649157
0	5178	0.005043190438300371
0	5162	-0.0031152241863310337
0	5204	0.008213819935917854
0	5166	-0.007464250549674034
0	5180	0.00276315794326365
0	5208	0.005551736801862717
0	5230	0.004379387944936752
0	5214	-0.0031962497159838676
0	5272	0.011617813259363174
0	5292	0.004010641481727362
0	5336	0.008818577975034714
0	5314	-0.00439906120300293
0	5416	0.020316027104854584
0	5470	0.010696458630263805
0	5422	-0.009449315257370472
0	5404	-0.003522596787661314
0	5326	-0.015185929834842682
0	5156	-0.032951269298791885
0	5118	-0.007344319485127926
0	5152	0.006556449458003044
0	5152	0.0
0	5164	0.0023055344354361296
0	5182	0.003453303826972842
0	5180	-0.0003832886286545545
0	5228	0.009191411547362804
0	5278	0.009566448628902435
0	5260	-0.0034400164149701595
0	5398	0.02635163441300392
0	5842	0.08465420454740524
0	7274	0.2718023955821991
0	7966	0.12960581481456757
1	5418	-0.4690548777580261
0	2258	-0.5808040499687195
0	4082	0.3414110839366913
0	5470	0.26157093048095703
0	5684	0.04025532305240631
0	5706	0.004126083105802536
0	5702	-0.0007479711784981191
0	5690	-0.002237108536064625
0	5690	0.0
0	5682	-0.0014838813804090023
0	5630	-0.00962463952600956
0	5636	0.001108374330215156
0	5656	0.003689583158120513
0	5616	-0.007370735518634319
0	5644	0.005153374280780554
0	5644	0.0
0	5666	0.004035266116261482
0	5682	0.0029256162233650684
0	5722	0.007288984023034573
0	5782	0.010895751416683197
0	5836	0.009768922813236713
0	5866	0.005405275616794825
0	5872	0.0010766322957351804
0	5858	-0.002501786919310689
0	5786	-0.0128182303160429
0	5712	-0.013134696520864964
0	5598	-0.020180562511086464
0	5414	-0.03253374248743057
0	5216	-0.035097669810056686
0	4950	-0.04773184284567833
0	4760	-0.034720528870821
0	4620	-0.02568650245666504
0	4592	-0.005064145661890507
0	4584	-0.0014424637192860246
0	4634	0.009063662961125374
0	4662	0.005108059849590063
0	4778	0.021297167986631393
0	4844	0.012186265550553799
0	4892	0.008909126743674278
0	4960	0.012683885172009468
0	5016	0.010492654517292976
0	5076	0.011285407468676567
0	5050	-0.004907574038952589
0	5116	0.012505368329584599
0	5114	-0.0003801510320045054
0	5174	0.011442957445979118
0	5172	-0.0003825749736279249
0	5182	0.0019189192680642009
0	5182	0.0
0	5152	-0.0057953097857534885
0	5176	0.004655132070183754
0	5182	0.001168770482763648
0	5152	-0.005869922693818808
0	5178	0.005111268721520901
0	5218	0.007898686453700066
0	5270	0.0103068258613348
0	5234	-0.007156393490731716
0	5274	0.007970773614943027
0	5426	0.03031713329255581
0	5414	-0.002390120876953006
0	5380	-0.0067512113600969315
0	5376	-0.0007910141139291227
0	5252	-0.02439984306693077
0	5126	-0.024686520919203758
0	5092	-0.006637945305556059
0	5152	0.0116792107000947
0	5164	0.0023284393828362226
0	5152	-0.002322640735656023
0	5182	0.0057950858026742935
0	5200	0.003470570780336857
0	5234	0.006545426324009895
0	5270	0.006920769810676575
0	5280	0.0019200490787625313
0	5434	0.02952529489994049
0	6118	0.13087235391139984
0	7722	0.3049468398094177
0	7580	-0.026567546650767326
1	4224	-0.6186023354530334
0	2904	-0.2447526454925537
0	3704	0.15045323967933655
0	5044	0.2543177008628845
0	5516	0.08965542912483215
0	5570	0.010235543362796307
0	5606	0.006805722136050463
0	5684	0.014706067740917206
0	5622	-0.01165530364960432
0	5600	-0.004126650281250477
0	5594	-0.0011228806106373668
0	5584	-0.0018677391344681382
0	5574	-0.001865903614088893
0	5568	-0.0011184292379766703
0	5568	0.0
0	5606	0.007066699676215649
0	5576	-0.005566757638007402
0	5624	0.008882090449333191
0	5656	0.005902026314288378
0	5654	-0.00036773720057681203
0	5742	0.016131989657878876
0	5730	-0.0021919142454862595
0	5756	0.004733354784548283
0	5764	0.0014515192015096545
0	5718	-0.008319567888975143
0	5654	-0.011543871834874153
0	5560	-0.016917023807764053
0	5458	-0.01834290474653244
0	5268	-0.03430387005209923
0	5076	-0.035184599459171295
0	4914	-0.030148133635520935
0	4816	-0.018160030245780945
0	4732	-0.015384051017463207
0	4662	-0.012740089558064938
0	4684	0.004013329278677702
0	4766	0.01503483671694994
0	4794	0.005159197840839624
0	4838	0.008147946558892727
0	4906	0.012658385559916496
0	4968	0.011592973954975605
0	5050	0.015393279492855072
0	5102	0.009794934652745724
0	5126	0.004534462001174688
0	5182	0.010610347613692284
0	5202	0.003798670368269086
0	5182	-0.0038074932526797056
0	5182	0.0
0	5152	-0.005741041153669357
0	5178	0.004990594927221537
0	5180	0.0003850695793516934
0	5242	0.011973580345511436
0	5252	0.0019374588737264276
0	5230	-0.004275608342140913
0	5286	0.010920579545199871
0	5350	0.012519561685621738
0	5318	-0.006274838000535965
0	5296	-0.004323446191847324
0	5272	-0.004724657628685236
0	5238	-0.006701444275677204
0	5090	-0.02917674370110035
0	5082	-0.0015769761521369219
0	5142	0.011814279481768608
0	5134	-0.001571873901411891
0	5182	0.009406477212905884
0	5178	-0.0007812194526195526
0	5208	0.005840363446623087
0	5214	0.0011647319188341498
0	5248	0.006582259200513363
0	5264	0.0030893594957888126
0	5504	0.04623386636376381
0	6242	0.1416814923286438
0	7996	0.33418434858322144
1	6590	-0.2630462944507599
0	2648	-0.7308300733566284
0	3232	0.1099935993552208
0	4586	0.25821298360824585
0	5446	0.1646290123462677
0	5606	0.030577143654227257
0	5614	0.0015244483947753906
0	5606	-0.0015202381182461977
0	5602	-0.0007580735255032778
0	5578	-0.004538120236247778
0	5566	-0.00226440723054111
0	5588	0.004142657853662968
0	5572	-0.0030071421060711145
0	5540	-0.0060059307143092155
0	5546	0.0011245501227676868
0	5572	0.004865451715886593
0	5576	0.0007471329299733043
0	5594	0.003355037420988083
0	5612	0.003344564465805888
0	5658	0.008519254624843597
0	5704	0.008492203429341316
0	5712	0.0014717425219714642
0	5750	0.006968129891902208
0	5690	-0.010963977314531803
0	5678	-0.002186376601457596
0	5584	-0.017078489065170288
0	5508	-0.013780098408460617
0	5394	-0.020639710128307343
0	5182	-0.03840811923146248
0	5026	-0.02844465896487236
0	4884	-0.02636791206896305
0	4756	-0.024021919816732407
0	4702	-0.010002345778048038
0	4712	0.0018356258515268564
0	4704	-0.0014673693804070354
0	4754	0.009212853386998177
0	4768	0.0025931689888238907
0	4848	0.014895914122462273
0	4898	0.009353953413665295
0	4968	0.013153279200196266
0	5032	0.012071979232132435
0	5074	0.007948924787342548
0	5134	0.011392548680305481
0	5164	0.0057121096178889275
0	5204	0.0076343645341694355
0	5182	-0.004208056256175041
0	5230	0.00920410081744194
0	5216	-0.002690479625016451
0	5182	-0.006549882236868143
0	5210	0.005408955737948418
0	5182	-0.0054246047511696815
0	5182	0.0
0	5236	0.010533296503126621
0	5260	0.004697163123637438
0	5278	0.003532782895490527
0	5266	-0.002361368155106902
0	5342	0.01498659048229456
0	5388	0.009080739691853523
0	5312	-0.015003552660346031
0	5324	0.0023669572547078133
0	5318	-0.001181164407171309
0	5138	-0.03533430024981499
0	5134	-0.0007832489791326225
0	5132	-0.0003905232879333198
0	5130	-0.00038945864071138203
0	5152	0.004272231832146645
0	5152	0.0
0	5182	0.005796429235488176
0	5244	0.011953573673963547
0	5246	0.00038474364555440843
0	5258	0.0023043539840728045
0	5468	0.0402679406106472
0	6280	0.15531156957149506
0	8114	0.3482455015182495
1	6554	-0.2907879948616028
0	2540	-0.7419958710670471
0	3104	0.10598184168338776
0	4740	0.31157156825065613
0	5478	0.14097601175308228
0	5578	0.019066505134105682
0	5590	0.0022826415952295065
0	5606	0.0030356692150235176
0	5582	-0.004541326314210892
0	5618	0.006797154899686575
0	5590	-0.005274791736155748
0	5578	-0.002256204606965184
0	5562	-0.0030024019069969654
0	5572	0.0018739225342869759
0	5552	-0.003743542591109872
0	5588	0.006728301290422678
0	5592	0.0007463614456355572
0	5614	0.004098004195839167
0	5624	0.0018572401022538543
0	5694	0.012961363419890404
0	5766	0.013285603374242783
0	5790	0.0044112782925367355
0	5800	0.0018308758735656738
0	5804	0.000729465507902205
0	5772	-0.005813742056488991
0	5670	-0.01847223751246929
0	5582	-0.01589614525437355
0	5388	-0.03497553989291191
0	5180	-0.03751758486032486
0	4950	-0.04176199436187744
0	4790	-0.02961902692914009
0	4668	-0.022833043709397316
0	4616	-0.009604609571397305
0	4618	0.00036600095336325467
0	4660	0.00769174424931407
0	4706	0.0084665697067976
0	4794	0.01628403179347515
0	4852	0.010785614140331745
0	4936	0.015693895518779755
0	4980	0.008253817446529865
0	5012	0.006026819348335266
0	5064	0.009829248301684856
0	5098	0.006447697523981333
0	5116	0.0034235285129398108
0	5212	0.018311757594347
0	5152	-0.01146964356303215
0	5174	0.004217252600938082
0	5182	0.001537653268314898
0	5206	0.004625762812793255
0	5210	0.0007730365032330155
0	5194	-0.003101817099377513
0	5182	-0.0023349937982857227
0	5220	0.007423421833664179
0	5220	0.0
0	5244	0.004724285565316677
0	5320	0.015012247487902641
0	5296	-0.00475165992975235
0	5332	0.00714096799492836
0	5438	0.02103397063910961
0	5378	-0.011885738000273705
0	5380	0.00039507471956312656
0	5346	-0.006690279580652714
0	5234	-0.021940993145108223
0	5134	-0.019511433318257332
0	5112	-0.00427815830335021
0	5138	0.005041234660893679
0	5132	-0.001160122686997056
0	5160	0.005402137525379658
0	5176	0.0030808334704488516
0	5206	0.005767677910625935
0	5244	0.007295160088688135
0	5248	0.0007667731842957437
0	5258	0.0019146818667650223
0	5558	0.05738185718655586
0	7104	0.2948768436908722
0	7708	0.11383482813835144
1	4700	-0.5579531788825989
0	2840	-0.3460250496864319
0	4378	0.2903384268283844
0	5354	0.1852109581232071
0	5550	0.037160154432058334
0	5604	0.010215019807219505
0	5626	0.0041506304405629635
0	5586	-0.007527381181716919
0	5598	0.0022530416026711464
0	5608	0.0018733842298388481
0	5572	-0.0067320759408175945
0	5582	0.0018668093252927065
0	5564	-0.003355037420988083
0	5582	0.00335241318680346
0	5574	-0.0014880767557770014
0	5568	-0.0011147167533636093
0	5608	0.007421242538839579
0	5638	0.005553087685257196
0	5688	0.009226453490555286
0	5750	0.01140041183680296
0	5814	0.011724188923835754
0	5836	0.004013475496321917
0	5868	0.005813882686197758
0	5808	-0.0108555369079113
0	5784	-0.004326506983488798
0	5686	-0.017609428614377975
0	5558	-0.02293989062309265
0	5404	-0.02755018137395382
0	5180	-0.040109824389219284
0	4932	-0.044923197478055954
0	4770	-0.02984524704515934
0	4606	-0.030200723558664322
0	4568	-0.006922684144228697
0	4592	0.0043671829625964165
0	4622	0.005484327208250761
0	4666	0.008089425042271614
0	4706	0.007396541070193052
0	4828	0.022688107565045357
0	4850	0.004110612906515598
0	4940	0.016894850879907608
0	4984	0.008294375613331795
0	5022	0.007189888507127762
0	5096	0.014050989411771297
0	5108	0.0022853082045912743
0	5134	0.004966444801539183
0	5134	0.0
0	5160	0.004994237329810858
0	5178	0.003467495320364833
0	5178	0.0
0	5170	-0.001550768269225955
0	5204	0.006615558173507452
0	5196	-0.001562784775160253
0	5204	0.0015693248715251684
0	5204	0.0
0	5210	0.0011868340661749244
0	5212	0.000397114286897704
0	5242	0.005975461099296808
0	5292	0.009980039671063423
0	5330	0.007590486668050289
0	5294	-0.0071838125586509705
0	5296	0.0003981420013587922
0	5440	0.028566516935825348
0	5444	0.0007891621789894998
0	5434	-0.0019616049248725176
0	5342	-0.017947951331734657
0	5246	-0.018641019240021706
0	5152	-0.018184397369623184
0	5110	-0.008101643063127995
0	5156	0.008857169188559055
0	5164	0.0015373578062281013
0	5198	0.0065244087018072605
0	5182	-0.0030661129858344793
0	5250	0.013017676770687103
0	5252	0.0003824969462584704
0	5276	0.004585753660649061
0	5430	0.029398662969470024
0	5968	0.10251133143901825
0	7658	0.3203710615634918
1	6718	-0.17544515430927277
0	2528	-0.7746157646179199
0	2660	0.024807054549455643
0	4304	0.3139641582965851
0	5418	0.21396194398403168
0	5632	0.04104597121477127
0	5660	0.005355845205485821
0	5656	-0.0007629317115060985
0	5612	-0.008368625305593014
0	5612	0.0
0	5572	-0.00757470540702343
0	5582	0.001890788204036653
0	5570	-0.0022648347076028585
0	5600	0.005652343388646841
0	5592	-0.0015057784039527178
0	5614	0.004137049429118633
0	5638	0.004508058540523052
0	5656	0.0033747891429811716
0	5666	0.001870090956799686
0	5718	0.009693414904177189
0	5754	0.006685567554086447
0	5826	0.01332182064652443
0	5870	0.008108008652925491
0	5846	-0.004404370207339525
0	5824	-0.004021006636321545
0	5778	-0.008378260768949986
0	5666	-0.020334307104349136
0	5462	-0.03695027530193329
0	5266	-0.03549438714981079
0	5042	-0.040737640112638474
0	4812	-0.04250286519527435
0	4682	-0.024308757856488228
0	4588	-0.017344240099191666
0	4534	-0.009846947155892849
0	4578	0.008012237027287483
0	4640	0.01134782936424017
0	4726	0.015836382284760475
0	4798	0.013334815390408039
0	4856	0.010799136012792587
0	4928	0.013469020836055279
0	4932	0.0007514841854572296
0	5030	0.018485449254512787
0	5036	0.0011357039911672473
0	5098	0.011775282211601734
0	5118	0.00381058850325644
0	5110	-0.0015288377180695534
0	5152	0.008052250370383263
0	5152	0.0
0	5158	0.0011576456017792225
0	5166	0.001548586878925562
0	5152	-0.0027197140734642744
0	5170	0.0035104600246995687
0	5180	0.0019586081616580486
0	5182	0.00039349423605017364
0	5214	0.006323444191366434
0	5200	-0.002777667483314872
0	5242	0.008364979177713394
0	5218	-0.004793480969965458
0	5248	0.006001600529998541
0	5244	-0.0008003094117157161
0	5270	0.005195012781769037
0	5286	0.0031872084364295006
0	5336	0.009920241311192513
0	5388	0.010266264900565147
0	5338	-0.009816239587962627
0	5394	0.010939779691398144
0	5490	0.01866227760910988
0	5458	-0.006190114188939333
0	5422	-0.006934367585927248
0	5322	-0.01919238455593586
0	5182	-0.026801781728863716
0	5134	-0.009174545295536518
0	5152	0.003438176354393363
0	5180	0.005344327073544264
0	5182	0.00038153864443302155
0	5204	0.004195217043161392
0	5236	0.006098490208387375
0	5250	0.0026666666381061077
0	5260	0.0019035774748772383
0	5290	0.0057070390321314335
0	5542	0.0479014627635479
0	6542	0.1896166056394577
0	8191	0.3099896013736725
1	5998	-0.4046200215816498
0	2258	-0.686603844165802
0	3402	0.21388907730579376
0	4968	0.29610675573349
0	5554	0.11099535971879959
0	5690	0.025705482810735703
0	5706	0.0030157763976603746
0	5676	-0.00563821429386735
0	5662	-0.002624491462484002
0	5654	-0.001496194046922028
0	5656	0.0003733084595296532
0	5614	-0.007826427929103374
0	5622	0.001488196779973805
0	5606	-0.002972191432490945
0	5596	-0.0018562863115221262
0	5582	-0.0025965834502130747
0	5604	0.004076313693076372
0	5630	0.004809085745364428
0	5660	0.00553365983068943
0	5676	0.002941771410405636
0	5742	0.012095960788428783
0	5768	0.00474877143278718
0	5828	0.01091974601149559
0	5860	0.005801901686936617
0	5838	-0.003973820712417364
0	5786	-0.009359532035887241
0	5672	-0.020454423502087593
0	5590	-0.014679293148219585
0	5366	-0.040088050067424774
0	5152	-0.03856898099184036
0	4952	-0.03671611100435257
0	4770	-0.033626899123191833
0	4658	-0.02037820965051651
0	4588	-0.012640095315873623
0	4550	-0.006877496372908354
0	4562	0.0021850760094821453
0	4634	0.013200835324823856
0	4670	0.006643945816904306
0	4764	0.017456112429499626
0	4834	0.013071895577013493
0	4910	0.014265157282352448
0	4948	0.007166025694459677
0	5014	0.012498579919338226
0	5052	0.007223876658827066
0	5106	0.010301673784852028
0	5126	0.0038273606915026903
0	5114	-0.0023031155578792095
0	5162	0.009241432882845402
0	5168	0.0011586591135710478
0	5158	-0.0019372336100786924
0	5174	0.003109976416453719
0	5182	0.0015607320237904787
0	5182	0.0
0	5200	0.0035400085616856813
0	5182	-0.0035553916823118925
0	5178	-0.0007935143657959998
0	5182	0.0007967175333760679
0	5168	-0.002797612687572837
0	5182	0.0028054986614733934
0	5222	0.008025574497878551
0	5222	0.0
0	5252	0.0060055251233279705
0	5268	0.0031926780939102173
0	5262	-0.0011924162972718477
0	5300	0.007518400438129902
0	5320	0.0039375764317810535
0	5360	0.007836172357201576
0	5340	-0.0038995982613414526
0	5434	0.018248647451400757
0	5482	0.009278231300413609
0	5438	-0.008469682186841965
0	5418	-0.0038368566893041134
0	5344	-0.014153830707073212
0	5214	-0.02481263317167759
0	5154	-0.01144019328057766
0	5170	0.0030497878324240446
0	5170	0.0
0	5204	0.006476684007793665
0	5204	0.0
0	5208	0.0007615856011398137
0	5236	0.0053294082172214985
0	5282	0.008752013556659222
0	5286	0.0007605623104609549
0	5600	0.05966481193900108
0	6786	0.22478866577148438
0	8191	0.2636253535747528
1	5540	-0.4882166087627411
0	2494	-0.5597310066223145
0	3208	0.1333889663219452
0	5016	0.3419730067253113
0	5568	0.10454346984624863
0	5662	0.01776389218866825
0	5672	0.0018849076004698873
0	5654	-0.003384243231266737
0	5642	-0.002250632969662547
0	5622	-0.003743052016943693
0	5640	0.0033624120987951756
0	5606	-0.006340168882161379
0	5572	-0.006329703144729137
0	5582	0.00186008436139673
0	5602	0.0037178639322519302
0	5582	-0.0037140895146876574
0	5612	0.005565484054386616
0	5628	0.002963347127661109
0	5638	0.001847370178438723
0	5682	0.008104274980723858
0	5744	0.011383875273168087
0	5796	0.009514342062175274
0	5798	0.000364619743777439
0	5732	-0.011989173479378223
0	5708	-0.004345910623669624
0	5658	-0.009028258733451366
0	5510	-0.02666330337524414
0	5336	-0.03130528703331947
0	5182	-0.02775091491639614
0	4952	-0.04184937849640846
0	4844	-0.02004479244351387
0	4720	-0.02311391569674015
0	4650	-0.01287017110735178
0	4648	-0.0003644979151431471
0	4666	0.0032878313213586807
0	4714	0.008815966546535492
0	4796	0.015148528851568699
0	4846	0.009287005290389061
0	4910	0.011947134509682655
0	4938	0.005250787828117609
0	4992	0.010170002467930317
0	5058	0.012480774894356728
0	5090	0.006072259973734617
0	5152	0.011800982989370823
0	5152	0.0
0	5154	0.0003828141780104488
0	5166	0.002303174464032054
0	5172	0.001154882600530982
0	5170	-0.00038609045441262424
0	5168	-0.000387256674002856
0	5152	-0.003108365461230278
0	5160	0.0015601639170199633
0	5176	0.003133281832560897
0	5174	-0.0003932569525204599
0	5210	0.007104608695954084
0	5246	0.007127960212528706
0	5294	0.009529860690236092
0	5284	-0.001988229574635625
0	5400	0.023071415722370148
0	5442	0.00834138784557581
0	5370	-0.014253285713493824
0	5350	-0.003945551346987486
0	5296	-0.0106090372428298
0	5152	-0.028171585872769356
0	5152	0.0
0	5114	-0.0073864818550646305
0	5180	0.012795987538993359
0	5178	-0.0003867973282467574
0	5180	0.000385971216019243
0	5194	0.002697114134207368
0	5204	0.0019233481725677848
0	5240	0.006914655212312937
0	5262	0.004220704548060894
0	5318	0.010731806978583336
0	5742	0.08116903901100159
0	6840	0.20940876007080078
0	8136	0.24454984068870544
1	5632	-0.4638296961784363
0	2798	-0.5234705805778503
0	3248	0.0843518078327179
0	4350	0.2090764343738556
0	5350	0.19069169461727142
0	5574	0.042663417756557465
0	5626	0.009879045188426971
0	5628	0.0003788787580560893
0	5644	0.003023050958290696
0	5640	-0.0007538730278611183
0	5610	-0.005641784053295851
0	5608	-0.0003753518685698509
0	5596	-0.00224918476305902
0	5540	-0.010486106388270855
0	5566	0.004863388370722532
0	5544	-0.004109640140086412
0	5558	0.0026111933402717113
0	5598	0.007441767957061529
0	5622	0.00445274543017149
0	5632	0.0018494999967515469
0	5650	0.0033198492601513863
0	5682	0.005884877406060696
0	5710	0.005133470520377159
0	5750	0.007310475688427687
0	5682	-0.012386607937514782
0	5638	-0.007993411272764206
0	5562	-0.013775435276329517
0	5474	-0.0159270241856575
0	5314	-0.029005125164985657
0	5136	-0.03256852179765701
0	5012	-0.023111045360565186
0	4842	-0.03180701285600662
0	4786	-0.010345719754695892
0	4732	-0.009882628917694092
0	4730	-0.00036517230910249054
0	4748	0.0032989992760121822
0	4762	0.002578902291134
0	4866	0.019259734079241753
0	4890	0.004465559497475624
0	4940	0.009346959181129932
0	4964	0.004506195895373821
0	5028	0.012065303511917591
0	5064	0.0068115596659481525
0	5114	0.00949234887957573
0	5152	0.007233685813844204
0	5152	0.0
0	5182	0.00574016198515892
0	5170	-0.002301584230735898
0	5174	0.0007692998042330146
0	5176	0.00038575782673433423
0	5182	0.001160676358267665
0	5168	-0.0027164423372596502
0	5166	-0.0003893575631082058
0	5166	0.0
0	5226	0.011766858398914337
0	5300	0.014555850066244602
0	5304	0.0007885502418503165
0	5292	-0.002369668334722519
0	5364	0.014235063455998898
0	5438	0.014625662006437778
0	5326	-0.02209218218922615
0	5364	0.00748011888936162
0	5290	-0.014516825787723064
0	5128	-0.031675681471824646
0	5098	-0.005850766785442829
0	5102	0.0007782404427416623
0	5160	0.01125863753259182
0	5172	0.002323389984667301
0	5162	-0.0019323421875014901
0	5216	0.010416398756206036
0	5248	0.006161745637655258
0	5240	-0.0015376335941255093
0	5270	0.005758304614573717
0	5700	0.08242706209421158
0	6986	0.2455948293209076
0	7326	0.06418243050575256
1	4238	-0.5750608444213867
0	2830	-0.26374945044517517
0	3614	0.14903809130191803
0	4950	0.2565087080001831
0	5516	0.10882801562547684
0	5644	0.02455870993435383
0	5668	0.004590782802551985
0	5650	-0.00343210157006979
0	5642	-0.0015207005199044943
0	5610	-0.006066810805350542
0	5580	-0.005676514469087124
0	5580	0.0
0	5588	0.001508371438831091
0	5570	-0.0033890644554048777
0	5568	-0.0003762510314118117
0	5588	0.0037568092811852694
0	5610	0.004126702435314655
0	5622	0.0022464338690042496
0	5632	0.0018662752117961645
0	5648	0.0029761535115540028
0	5702	0.010010628961026669
0	5784	0.015150581486523151
0	5822	0.006994637195020914
0	5792	-0.005499810446053743
0	5794	0.0003653680032584816
0	5710	-0.015294603072106838
0	5644	-0.01198300626128912
0	5458	-0.03369402512907982
0	5276	-0.03301766887307167
0	5054	-0.04069511592388153
0	4848	-0.038293756544589996
0	4706	-0.026297271251678467
0	4660	-0.008421309292316437
0	4616	-0.008004074916243553
0	4638	0.004010159056633711
0	4672	0.006230758037418127
0	4740	0.012535949237644672
0	4786	0.008528837002813816
0	4854	0.012675531208515167
0	4918	0.011988610960543156
0	4992	0.01392198633402586
0	5070	0.014728838577866554
0	5074	0.0007577575161121786
0	5152	0.01482438761740923
0	5166	0.002667852444574237
0	5182	0.0030567797366529703
0	5216	0.006512494757771492
0	5206	-0.0019202703842893243
0	5182	-0.0046209534630179405
0	5204	0.004248143173754215
0	5200	-0.0007746033952571452
0	5182	-0.003497046884149313
0	5182	0.0
0	5196	0.0027419799007475376
0	5220	0.0047188978642225266
0	5206	-0.00276308530010283
0	5212	0.0011881188256666064
0	5246	0.006751926150172949
0	5302	0.011136448010802269
0	5346	0.008748558349907398
0	5264	-0.016272639855742455
0	5380	0.022956660017371178
0	5446	0.013003730215132236
0	5394	-0.01019274815917015
0	5370	-0.004680552054196596
0	5332	-0.007375776302069426
0	5214	-0.022806338965892792
0	5118	-0.018497822806239128
0	5110	-0.0015382051933556795
0	5154	0.00844627059996128
0	5178	0.004600109998136759
0	5154	-0.004594649653881788
0	5210	0.010715105570852757
0	5222	0.002294104313477874
0	5226	0.0007643604185432196
0	5248	0.004202376119792461
0	5484	0.04506109654903412
0	6354	0.16583220660686493
0	8191	0.3476182222366333
1	6174	-0.3745705485343933
0	2332	-0.7092268466949463
0	3212	0.1653648316860199
0	4660	0.2754999101161957
0	5482	0.15691514313220978
0	5594	0.02134132757782936
0	5608	0.0026613438967615366
0	5612	0.0007584519917145371
0	5636	0.004539235960692167
0	5630	-0.0011320256162434816
0	5602	-0.00527191162109375
0	5600	-0.0003759610408451408
0	5570	-0.005627567879855633
0	5572	0.00037472599069587886
0	5594	0.004118744749575853
0	5596	0.0003739645762834698
0	5618	0.004107824061065912
0	5610	-0.0014911000616848469
0	5658	0.008924642577767372
0	5700	0.007783014327287674
0	5760	0.011078218929469585
0	5802	0.007725937757641077
0	5828	0.004764493554830551
0	5848	0.0036499679554253817
0	5808	-0.007271713577210903
0	5730	-0.014129667542874813
0	5660	-0.012641996145248413
0	5480	-0.03242756426334381
0	5276	-0.0367521196603775
0	4960	-0.05730070173740387
0	4788	-0.031810224056243896
0	4654	-0.0249959584325552
0	4546	-0.01985926926136017
0	4558	0.0021886893082410097
0	4604	0.008395181968808174
0	4638	0.006238455418497324
0	4698	0.011073787696659565
0	4788	0.016704199835658073
0	4830	0.007835236378014088
0	4906	0.014249466359615326
0	4934	0.005273665767163038
0	4988	0.010213474743068218
0	5028	0.0075948406010866165
0	5062	0.006477836053818464
0	5108	0.008792608976364136
0	5158	0.009586869738996029
0	5160	0.0003845512983389199
0	5198	0.007327985018491745
0	5182	-0.0030936605762690306
0	5182	0.0
0	5198	0.003113607643172145
0	5226	0.0054687499068677425
0	5224	-0.00039209536043927073
0	5216	-0.0015745965065434575
0	5210	-0.0011858644429594278
0	5224	0.0027779615484178066
0	5242	0.003583658719435334
0	5212	-0.005989378783851862
0	5228	0.003200042759999633
0	5256	0.005601867102086544
0	5306	0.009983626194298267
0	5336	0.005969594698399305
0	5340	0.0007923616212792695
0	5326	-0.0027588019147515297
0	5412	0.016861863434314728
0	5480	0.013262598775327206
0	5378	-0.019785592332482338
0	5408	0.0057938178069889545
0	5318	-0.01731235347688198
0	5166	-0.02914743684232235
0	5176	0.0019144130637869239
0	5154	-0.004205214325338602
0	5162	0.0015275533078238368
0	5210	0.009157508611679077
0	5214	0.0007624081918038428
0	5218	0.0007618950330652297
0	5244	0.004950432106852531
0	5270	0.00494779460132122
0	5294	0.0045651099644601345
0	5462	0.03193309158086777
0	6286	0.15634684264659882
0	8144	0.35013002157211304
1	6770	-0.25426238775253296
0	2674	-0.7508156895637512
0	2560	-0.021226415410637856
0	4100	0.2915378212928772
0	5272	0.22345659136772156
0	5626	0.06748169660568237
0	5674	0.009126054123044014
0	5672	-0.00037918047746643424
0	5640	-0.006050979718565941
0	5636	-0.0007547834538854659
0	5608	-0.0052735330536961555
0	5632	0.0045125787146389484
0	5600	-0.006005254574120045
0	5566	-0.006373088341206312
0	5600	0.0063696657307446
0	5584	-0.0029933396726846695
0	5598	0.0026163007132709026
0	5620	0.00410417141392827
0	5648	0.005208785645663738
0	5698	0.009274258278310299
0	5726	0.00517617492005229
0	5796	0.012895618565380573
0	5826	0.005506877321749926
0	5874	0.008778132498264313
0	5868	-0.0010928962146863341
0	5838	-0.005443856120109558
0	5766	-0.01302051916718483
0	5668	-0.017672091722488403
0	5430	-0.042864859104156494
0	5202	-0.041275933384895325
0	4982	-0.04054751247167587
0	4772	-0.039134323596954346
0	4626	-0.026857653632760048
0	4542	-0.01525904145091772
0	4548	0.0010870222467929125
0	4580	0.00582291092723608
0	4614	0.0062263463623821735
0	4678	0.011796509847044945
0	4776	0.018174398690462112
0	4852	0.014170115813612938
0	4918	0.01236588042229414
0	4956	0.007150563411414623
0	4988	0.00604716781526804
0	5028	0.0075882128439843655
0	5098	0.013324704021215439
0	5110	0.0022915340960025787
0	5130	0.0038307816721498966
0	5138	0.0015369049506261945
0	5170	0.006166653707623482
0	5174	0.0007732058293186128
0	5166	-0.0015516505809500813
0	5182	0.003114577615633607
0	5182	0.0
0	5202	0.003925262950360775
0	5182	-0.003942595794796944
0	5198	0.003168358700349927
0	5214	0.003181800013408065
0	5236	0.004391042049974203
0	5220	-0.003202690277248621
0	5240	0.004008980467915535
0	5254	0.00280557363294065
0	5248	-0.0012002080911770463
0	5246	-0.00039880358963273466
0	5266	0.003971668891608715
0	5326	0.011858176440000534
0	5362	0.0070786252617836
0	5416	0.01056379359215498
0	5316	-0.019460806623101234
0	5432	0.022481491789221764
0	5514	0.015825023874640465
0	5418	-0.018448293209075928
0	5420	0.00038311240496113896
0	5320	-0.019099034368991852
0	5206	-0.021726977080106735
0	5152	-0.010280100628733635
0	5152	0.0
0	5152	0.0
0	5182	0.005706894211471081
0	5182	0.0
0	5182	0.0
0	5232	0.00950763188302517
0	5250	0.0034213161561638117
0	5284	0.006459703203290701
0	5514	0.04366978257894516
0	6456	0.17850375175476074
0	8144	0.31731313467025757
1	5642	-0.4618053734302521
0	2292	-0.6167006492614746
0	3244	0.1784776896238327
0	5042	0.34129735827445984
0	5610	0.10795332491397858
0	5692	0.015549740754067898
0	5670	-0.004160205367952585
0	5670	0.0
0	5640	-0.00564355356618762
0	5636	-0.0007509950664825737
0	5594	-0.007871950045228004
0	5596	0.0003744383284356445
0	5570	-0.004859207663685083
0	5556	-0.0026142490096390247
0	5574	0.0033602986950427294
0	5606	0.005968070589005947
0	5642	0.0067063248716294765
0	5656	0.0026028112042695284
0	5680	0.004449553322046995
0	5710	0.005543851759284735
0	5770	0.01104972418397665
0	5814	0.008072505705058575
0	5864	0.009137983433902264
0	5874	0.0018200349295511842
0	5854	-0.0036248518154025078
0	5802	-0.009389331564307213
0	5724	-0.014037360437214375
0	5590	-0.024051981046795845
0	5392	-0.035523343831300735
0	5166	-0.040806498378515244
0	4968	-0.03640330210328102
0	4736	-0.04283129423856735
0	4636	-0.01818821020424366
0	4568	-0.012264479883015156
0	4546	-0.0039792596362531185
0	4564	0.0032767783850431442
0	4610	0.008431702852249146
0	4682	0.013283479027450085
0	4730	0.008909787982702255
0	4814	0.01568041741847992
0	4874	0.011257880367338657
0	4936	0.011685765348374844
0	4992	0.010598833672702312
0	5030	0.007218387443572283
0	5082	0.00991080328822136
0	5104	0.004206179175525904
0	5134	0.0057541080750525
0	5156	0.004233428742736578
0	5142	-0.0027026678435504436
0	5134	-0.0015497468411922455
0	5172	0.007388779893517494
0	5164	-0.0015615849988535047
0	5202	0.007449032738804817
0	5198	-0.0007875152514316142
0	5182	-0.003164097899571061
0	5204	0.004369992762804031
0	5216	0.0023931078612804413
0	5212	-0.0008004055125638843
0	5222	0.0020060716196894646
0	5230	0.00160668371245265
0	5284	0.010840470902621746
0	5268	-0.0032052136957645416
0	5272	0.0007984669064171612
0	5300	0.005565715488046408
0	5322	0.0043519544415175915
0	5308	-0.0027553269173949957
0	5294	-0.0027419438119977713
0	5362	0.013258807361125946
0	5400	0.0073767309077084064
0	5364	-0.006958314683288336
0	5402	0.0073189521208405495
0	5504	0.019579237326979637
0	5488	-0.0030601315665990114
0	5446	-0.008007524535059929
0	5432	-0.0026621369179338217
0	5344	-0.016696391627192497
0	5218	-0.023869965225458145
0	5162	-0.010603249073028564
0	5176	0.0026507119182497263
0	5160	-0.003028735052794218
0	5192	0.006056476384401321
0	5210	0.003406338393688202
0	5258	0.009080934338271618
0	5248	-0.0018911934457719326
0	5284	0.006806150544434786
0	5316	0.0060460250824689865
0	5548	0.043802786618471146
0	6460	0.17183123528957367
0	8130	0.3122000992298126
1	5432	-0.49540337920188904
0	2474	-0.5424736142158508
0	3618	0.21346735954284668
0	5064	0.2726175785064697
0	5606	0.10231820493936539
0	5662	0.01055130548775196
0	5686	0.004512352403253317
0	5694	0.0015005626482889056
0	5642	-0.009729325771331787
0	5626	-0.0029884199611842632
0	5622	-0.0007460552733391523
0	5598	-0.004469162784516811
0	5592	-0.0011159330606460571
0	5556	-0.006691947113722563
0	5578	0.004087801091372967
0	5590	0.002227888209745288
0	5604	0.002596664009615779
0	5644	0.007407133001834154
0	5664	0.0036938535049557686
0	5690	0.004787214566022158
0	5750	0.011012677103281021
0	5804	0.009875761345028877
0	5802	-0.00036440935218706727
0	5800	-0.00036310378345660865
0	5774	-0.004704917315393686
0	5696	-0.014070110395550728
0	5610	-0.015474862419068813
0	5446	-0.02945825457572937
0	5218	-0.040979187935590744
0	5040	-0.032232362776994705
0	4820	-0.04059490188956261
0	4662	-0.029264679178595543
0	4580	-0.014985563233494759
0	4560	-0.0036337210331112146
0	4620	0.010934538207948208
0	4638	0.00330012827180326
0	4708	0.01291465200483799
0	4730	0.004083450883626938
0	4836	0.019792858511209488
0	4932	0.018015988171100616
0	4960	0.005277574993669987
0	5020	0.011356323957443237
0	5072	0.009878169745206833
0	5112	0.007623694837093353
0	5152	0.007645260076969862
0	5152	0.0
0	5182	0.005765682552009821
0	5166	-0.003083366435021162
0	5178	0.0023196472320705652
0	5162	-0.0031025789212435484
0	5170	0.0015566019574180245
0	5182	0.002343719359487295
0	5174	-0.0015688324347138405
0	5182	0.0015752993058413267
0	5182	0.0
0	5178	-0.0007939552888274193
0	5212	0.006771829444915056
0	5206	-0.0011981948046013713
0	5238	0.006400597747415304
0	5258	0.003999840002506971
0	5306	0.009585685096681118
0	5330	0.004777387250214815
0	5294	-0.007134458515793085
0	5382	0.01735791563987732
0	5454	0.014125587418675423
0	5430	-0.004682987928390503
0	5404	-0.005047236569225788
0	5386	-0.0034785745665431023
0	5278	-0.020783619955182076
0	5152	-0.0241790022701025
0	5158	0.001149763003922999
0	5154	-0.0007655404624529183
0	5182	0.005354206543415785
0	5182	0.0
0	5196	0.0026740352623164654
0	5220	0.0045827762223780155
0	5258	0.007252923678606749
0	5304	0.008775611408054829
0	5274	-0.005718206986784935
0	5614	0.06476683914661407
0	6518	0.1717107743024826
0	8102	0.29832756519317627
1	6430	-0.30923259258270264
0	2556	-0.7109822630882263
0	3068	0.09549982100725174
0	4232	0.22000454366207123
0	5366	0.21561941504478455
0	5592	0.04292986914515495
0	5626	0.0064427293837070465
0	5658	0.006048920564353466
0	5618	-0.007542141713202
0	5620	0.00037636904744431376
0	5628	0.001502742525190115
0	5608	-0.0037490157410502434
0	5608	0.0
0	5560	-0.008976325392723083
0	5550	-0.0018685534596443176
0	5566	0.002986969193443656
0	5586	0.003729534102603793
0	5584	-0.00037224075640551746
0	5604	0.003712457837536931
0	5620	0.0029617929831147194
0	5644	0.004429951310157776
0	5696	0.009571021422743797
0	5734	0.006972220726311207
0	5760	0.004754821769893169
0	5726	-0.0061974432319402695
0	5666	-0.010905654169619083
0	5612	-0.009793609380722046
0	5516	-0.01737535558640957
0	5386	-0.02354304865002632
0	5228	-0.028810735791921616
0	5078	-0.027838265523314476
0	4896	-0.0340619832277298
0	4792	-0.019183943048119545
0	4714	-0.014237040653824806
0	4692	-0.00400383397936821
0	4676	-0.0029238341376185417
0	4746	0.01286354847252369
0	4772	0.004803784191608429
0	4812	0.007430984638631344
0	4888	0.014189694076776505
0	4952	0.012003901414573193
0	5018	0.012431562878191471
0	5060	0.007940409705042839
0	5100	0.007588501088321209
0	5142	0.00799117237329483
0	5178	0.006867345422506332
0	5168	-0.0019123140955343843
0	5182	0.002684392035007477
0	5162	-0.003844724502414465
0	5178	0.0030845156870782375
0	5182	0.0007733253878541291
0	5210	0.005429442971944809
0	5182	-0.00544655229896307
0	5176	-0.0011713106650859118
0	5228	0.01019008457660675
0	5248	0.003932054154574871
0	5226	-0.00433714035898447
0	5272	0.009091627784073353
0	5352	0.015836983919143677
0	5378	0.005148174706846476
0	5298	-0.015824871137738228
0	5308	0.001975243678316474
0	5162	-0.02876053936779499
0	5062	-0.019651254639029503
0	5096	0.006666230969130993
0	5092	-0.000782197224907577
0	5098	0.0011701228795573115
0	5158	0.011674514971673489
0	5152	-0.001164535991847515
0	5182	0.005809899885207415
0	5228	0.008891638368368149
0	5212	-0.0030872535426169634
0	5240	0.005395960528403521
0	5860	0.11934398859739304
0	7114	0.24021148681640625
0	7886	0.14604248106479645
1	5020	-0.53307044506073
0	2942	-0.3868589401245117
0	3568	0.11818456649780273
0	4870	0.24829953908920288
0	5474	0.11541254818439484
0	5558	0.01602095365524292
0	5572	0.0026642645243555307
0	5586	0.002657689619809389
0	5552	-0.006437687203288078
0	5562	0.0018895732937380672
0	5548	-0.0026401812210679054
0	5510	-0.007151729892939329
0	5526	0.003006765153259039
0	5514	-0.002252618782222271
0	5530	0.00300093786790967
0	5506	-0.004494887311011553
0	5498	-0.0014964459696784616
0	5548	0.00933323334902525
0	5554	0.0011166115291416645
0	5590	0.006680687889456749
0	5628	0.0070301806554198265
0	5658	0.00553206168115139
0	5666	0.0014706962974742055
0	5676	0.0018325982382521033
0	5652	-0.004385003354400396
0	5614	-0.006925039459019899
0	5458	-0.028359854593873024
0	5308	-0.027233116328716278
0	5138	-0.030967647209763527
0	4968	-0.031343724578619
0	4812	-0.029287707060575485
0	4666	-0.027446016669273376
0	4636	-0.005579319316893816
0	4640	0.0007390163373202085
0	4652	0.002220194088295102
0	4700	0.008926025591790676
0	4752	0.009721565060317516
0	4828	0.014281419105827808
0	4866	0.007174775004386902
0	4944	0.014791028574109077
0	4992	0.009137867949903011
0	5028	0.006877666339278221
0	5006	-0.004215959459543228
0	5072	0.012690030969679356
0	5130	0.011183525435626507
0	5154	0.004639593884348869
0	5130	-0.004650141578167677
0	5156	0.005049654748290777
0	5162	0.0011682697804644704
0	5182	0.0039041657000780106
0	5182	0.0
0	5152	-0.0058889733627438545
0	5152	0.0
0	5180	0.005533305462449789
0	5152	-0.005551443435251713
0	5212	0.01193538960069418
0	5238	0.005185825750231743
0	5282	0.00878886692225933
0	5262	-0.003995631355792284
0	5358	0.019163206219673157
0	5400	0.008362202905118465
0	5346	-0.010709610767662525
0	5320	-0.005133402533829212
0	5268	-0.01022079586982727
0	5152	-0.022706808522343636
0	5126	-0.0050729066133499146
0	5152	0.005058890674263239
0	5138	-0.0027169694658368826
0	5180	0.00813459511846304
0	5180	0.0
0	5192	0.0023159466218203306
0	5206	0.0026984657160937786
0	5244	0.007316039875149727
0	5250	0.0011534024961292744
0	5424	0.03341056779026985
0	6196	0.1479569673538208
0	7942	0.33241522312164307
1	6650	-0.2416669726371765
0	2700	-0.7320237159729004
0	2900	0.037636905908584595
0	4232	0.2543019950389862
0	5302	0.20552417635917664
0	5624	0.06178998947143555
0	5642	0.0034437018912285566
0	5670	0.00534113310277462
0	5664	-0.0011407710844650865
0	5650	-0.0026541962288320065
0	5634	-0.0030254898592829704
0	5616	-0.0033961411099880934
0	5588	-0.005271150730550289
0	5600	0.002255808562040329
0	5594	-0.001126492628827691
0	5598	0.0007498313207179308
0	5628	0.005613982677459717
0	5638	0.0018671347061172128
0	5658	0.003723008092492819
0	5702	0.008163669146597385
0	5774	0.013313444331288338
0	5844	0.01289308536797762
0	5854	0.00183439115062356
0	5866	0.002192234620451927
0	5852	-0.0025471525732427835
0	5764	-0.01594819314777851
0	5690	-0.013368983753025532
0	5560	-0.02342398650944233
0	5340	-0.03960824012756348
0	5064	-0.04994691535830498
0	4880	-0.03388623520731926
0	4708	-0.03202423080801964
0	4650	-0.010665947571396828
0	4612	-0.006913867313414812
0	4624	0.002178306458517909
0	4680	0.010207305662333965
0	4720	0.0073329913429915905
0	4788	0.012536718510091305
0	4858	0.012975779362022877
0	4926	0.012668132781982422
0	4968	0.007859772071242332
0	5060	0.017288466915488243
0	5074	0.002640048274770379
0	5132	0.010972795076668262
0	5156	0.004553906619548798
0	5162	0.0011416394263505936
0	5210	0.009158440865576267
0	5214	0.0007652377826161683
0	5202	-0.002301937434822321
0	5212	0.001923890900798142
0	5220	0.0015439643757417798
0	5210	-0.0019368584034964442
0	5198	-0.002333782846108079
0	5240	0.00820312462747097
0	5250	0.00196111761033535
0	5232	-0.003543958067893982
0	5256	0.004741833545267582
0	5262	0.0011888564331457019
0	5326	0.012706144712865353
0	5366	0.007942075841128826
0	5350	-0.0031704932916909456
0	5356	0.0011852553579956293
0	5468	0.022030765190720558
0	5460	-0.0015652308939024806
0	5410	-0.009728888049721718
0	5402	-0.0015487268101423979
0	5274	-0.024664713069796562
0	5168	-0.0203530415892601
0	5174	0.001149263815023005
0	5182	0.0015292663592845201
0	5174	-0.0015267758863046765
0	5224	0.009529860690236092
0	5222	-0.0003807976609095931
0	5264	0.007989245466887951
0	5280	0.003040977055206895
0	5298	0.0034184136893600225
0	5352	0.01024642027914524
0	5994	0.12170923501253128
0	7940	0.3671097755432129
1	6554	-0.2570411264896393
0	2478	-0.7496964931488037
0	3176	0.1305779367685318
0	4728	0.2940693497657776
0	5532	0.15279361605644226
0	5646	0.021624766290187836
0	5676	0.005676514469087124
0	5676	0.0
0	5662	-0.002634682459756732
0	5634	-0.005256175994873047
0	5616	-0.0033724706154316664
0	5620	0.0007482696673832834
0	5614	-0.0011205179616808891
0	5618	0.0007458141189999878
0	5608	-0.0018627987010404468
0	5626	0.0033499589189887047
0	5620	-0.0011151587823405862
0	5648	0.005197055172175169
0	5684	0.006666501984000206
0	5736	0.009598818607628345
0	5800	0.011773217469453812
0	5870	0.012828344479203224
0	5910	0.0072994474321603775
0	5896	-0.0025441900361329317
0	5884	-0.002171867061406374
0	5792	-0.016588931903243065
0	5670	-0.02193087711930275
0	5482	-0.03371995687484741
0	5208	-0.04910687729716301
0	4962	-0.04429665580391884
0	4754	-0.038135748356580734
0	4602	-0.028178412467241287
0	4548	-0.009881061501801014
0	4524	-0.00435513723641634
0	4566	0.007630906533449888
0	4654	0.016082655638456345
0	4722	0.012503065168857574
0	4814	0.017015399411320686
0	4856	0.007809401024132967
0	4922	0.012333529070019722
0	4968	0.00863439030945301
0	5028	0.011308095417916775
0	5068	0.007566872052848339
0	5100	0.006074411328881979
0	5106	0.0011426975252106786
0	5170	0.012227742001414299
0	5194	0.004598758649080992
0	5210	0.0030742036178708076
0	5178	-0.006165703292936087
0	5220	0.008118870668113232
0	5194	-0.00504273409023881
0	5202	0.0015577132580801845
0	5182	-0.003911240957677364
0	5230	0.00943173747509718
0	5246	0.003157686907798052
0	5248	0.0003963744966313243
0	5244	-0.000795608211774379
0	5246	0.00039893086068332195
0	5272	0.005194251891225576
0	5250	-0.004393263719975948
0	5292	0.00837109237909317
0	5344	0.010327295400202274
0	5408	0.012648388743400574
0	5366	-0.00825374387204647
0	5410	0.008599348366260529
0	5534	0.02410200610756874
0	5460	-0.014301911927759647
0	5446	-0.002692963695153594
0	5402	-0.008429441601037979
0	5282	-0.022909507155418396
0	5176	-0.02019047550857067
0	5182	0.00114134990144521
0	5174	-0.0015203151851892471
0	5182	0.0015192950377240777
0	5180	-0.0003796266973949969
0	5198	0.00341504137031734
0	5230	0.00607010954990983
0	5258	0.005310137756168842
0	5260	0.00037918047746643424
0	5284	0.004547808784991503
0	5668	0.07273554056882858
0	7620	0.36863574385643005
0	7316	-0.05654972419142723
1	4234	-0.5658230185508728
0	2510	-0.31844937801361084
0	4510	0.37576091289520264
0	5498	0.1864878237247467
0	5668	0.032036785036325455
0	5682	0.002631348092108965
0	5732	0.00937359407544136
0	5704	-0.005233448930084705
0	5670	-0.006338632199913263
0	5654	-0.002976855030283332
0	5656	0.0003715400234796107
0	5606	-0.009271850809454918
0	5636	0.0055563785135746
0	5616	-0.003701921319589019
0	5618	0.00036983616882935166
0	5652	0.006280556321144104
0	5660	0.0014755065785720944
0	5704	0.00809647049754858
0	5748	0.008070333860814571
0	5822	0.013526028953492641
0	5878	0.010195659473538399
0	5906	0.00507638743147254
0	5908	0.0003610151761677116
0	5892	-0.002875835634768009
0	5822	-0.012532076798379421
0	5742	-0.014274328015744686
0	5616	-0.02241780236363411
0	5418	-0.03515874594449997
0	5152	-0.0473034642636776
0	4936	-0.03898213431239128
0	4738	-0.036252669990062714
0	4576	-0.029570316895842552
0	4508	-0.012258141301572323
0	4524	0.0028843034524470568
0	4568	0.007978530600667
0	4602	0.006206493824720383
0	4688	0.015802627429366112
0	4778	0.016644062474370003
0	4840	0.011531736701726913
0	4912	0.01346096396446228
0	4956	0.008264359086751938
0	5002	0.008678044192492962
0	5034	0.006059917155653238
0	5080	0.008744360879063606
0	5106	0.0049593085423111916
0	5132	0.004975505173206329
0	5152	0.0038400492630898952
0	5166	0.0026968023739755154
0	5166	0.0
0	5178	0.0023282887414097786
0	5210	0.006234738044440746
0	5178	-0.0062619042582809925
0	5200	0.004325599875301123
0	5206	0.0011852086754515767
0	5202	-0.0007937243208289146
0	5204	0.0003984963404946029
0	5244	0.007998507469892502
0	5256	0.002405516803264618
0	5236	-0.00401353882625699
0	5262	0.0052146706730127335
0	5248	-0.002801793161779642
0	5278	0.0059834858402609825
0	5304	0.005161597393453121
0	5314	0.0019748276099562645
0	5338	0.004715065937489271
0	5406	0.013292326591908932
0	5360	-0.008945007808506489
0	5364	0.0007744533941149712
0	5500	0.02623220533132553
0	5470	-0.005762064829468727
0	5406	-0.012248647399246693
0	5390	-0.0030533962417393923
0	5288	-0.019417475908994675
0	5194	-0.01786573976278305
0	5162	-0.006077564787119627
0	5162	0.0
0	5206	0.00835210457444191
0	5158	-0.009108275175094604
0	5182	0.00455436808988452
0	5208	0.004933399148285389
0	5220	0.002276521408930421
0	5254	0.006449736654758453
0	5310	0.010617991909384727
0	5784	0.0898112803697586
0	7086	0.24579951167106628
0	7810	0.13507966697216034
1	3810	-0.7343941330909729
0	2924	-0.1641085147857666
0	4390	0.2755052149295807
0	5452	0.20064489543437958
0	5634	0.034344375133514404
0	5618	-0.0030119726434350014
0	5640	0.004132645204663277
0	5656	0.0029992503114044666
0	5626	-0.005611602216959
0	5588	-0.00709528848528862
0	5588	0.0
0	5572	-0.0029798857867717743
0	5536	-0.006696096621453762
0	5556	0.003719223430380225
0	5560	0.0007434483268298209
0	5590	0.0055705476552248
0	5614	0.004450928419828415
0	5644	0.005552470684051514
0	5662	0.003322259057313204
0	5718	0.010304220020771027
0	5758	0.007335142232477665
0	5788	0.005482856649905443
0	5782	-0.0010923788649961352
0	5782	0.0
0	5706	-0.013738912530243397
0	5658	-0.008651870302855968
0	5534	-0.022296544164419174
0	5326	-0.03735050931572914
0	5118	-0.03745318204164505
0	4930	-0.03425655886530876
0	4760	-0.03152818977832794
0	4648	-0.020650237798690796
0	4584	-0.011676417663693428
0	4578	-0.0010933740995824337
0	4584	0.0010992097668349743
0	4640	0.010325498878955841
0	4674	0.006306963507086039
0	4722	0.0089574521407485
0	4808	0.016142554581165314
0	4894	0.016225598752498627
0	4926	0.0060638985596597195
0	4964	0.00723111629486084
0	5022	0.011079697869718075
0	5100	0.014949211850762367
0	5116	0.0030754641629755497
0	5110	-0.0011565893655642867
0	5136	0.005027392879128456
0	5166	0.005818764679133892
0	5130	-0.007004163693636656
0	5194	0.012494956143200397
0	5160	-0.0066606588661670685
0	5174	0.0027533762622624636
0	5162	-0.0023695745039731264
0	5182	0.00396547419950366
0	5220	0.0075643970631062984
0	5238	0.003594727721065283
0	5318	0.0160213615745306
0	5248	-0.014038934372365475
0	5302	0.010835685767233372
0	5426	0.02485135942697525
0	5424	-0.00039950458449311554
0	5364	-0.011932382360100746
0	5350	-0.0027710699941962957
0	5196	-0.03032849356532097
0	5100	-0.01882968284189701
0	5142	0.008210287429392338
0	5134	-0.0015587654197588563
0	5154	0.003885305719450116
0	5160	0.0011623401660472155
0	5154	-0.0011597041739150882
0	5182	0.005402902141213417
0	5212	0.005779307801276445
0	5242	0.0057701184414327145
0	5292	0.009603318758308887
0	5526	0.04488835483789444
0	6286	0.14541001617908478
0	7834	0.2939724326133728
0	7246	-0.10978888720273972
1	3588	-0.6742774248123169
0	2974	-0.11426090449094772
0	3710	0.13887666165828705
0	5104	0.2654563784599304
0	5552	0.08534958958625793
0	5608	0.01064234133809805
0	5620	0.002274364000186324
0	5642	0.0041591571643948555
0	5626	-0.0030171601101756096
0	5606	-0.0037641627714037895
0	5568	-0.007135882042348385
0	5584	0.0029995874501764774
0	5560	-0.00449494319036603
0	5572	0.0022455649450421333
0	5584	0.0022426554933190346
0	5590	0.00111969537101686
0	5582	-0.0014892772305756807
0	5622	0.0074241808615624905
0	5664	0.007772308774292469
0	5726	0.011436019092798233
0	5766	0.007352220360189676
0	5770	0.0007325023179873824
0	5766	-0.0007297583506442606
0	5734	-0.005817405879497528
0	5676	-0.010510800406336784
0	5554	-0.022051114588975906
0	5422	-0.02382098138332367
0	5208	-0.038643039762973785
0	5014	-0.035260334610939026
0	4874	-0.02588789351284504
0	4766	-0.020266974344849586
0	4704	-0.011549638584256172
0	4694	-0.001843046280555427
0	4710	0.002931154565885663
0	4776	0.012120173312723637
0	4800	0.004428370855748653
0	4834	0.006304858718067408
0	4888	0.010062486864626408
0	4998	0.02059410884976387
0	5018	0.0037591159343719482
0	5072	0.010187141597270966
0	5098	0.004920266568660736
0	5152	0.010250438936054707
0	5202	0.009515712969005108
0	5218	0.0030521925073117018
0	5250	0.006118624936789274
0	5210	-0.007664890959858894
0	5232	0.004225730895996094
0	5232	0.0
0	5246	0.0027033290825784206
0	5220	-0.005036027170717716
0	5236	0.0031100569758564234
0	5252	0.0031208551954478025
0	5320	0.013308108784258366
0	5298	-0.004317224491387606
0	5286	-0.0023606866598129272
0	5398	0.02207186445593834
0	5432	0.006701444275677204
0	5388	-0.008659712970256805
0	5356	-0.006282557733356953
0	5250	-0.02074553444981575
0	5138	-0.021850816905498505
0	5114	-0.004669139627367258
0	5138	0.0046564568765461445
0	5164	0.005030570551753044
0	5158	-0.0011580029968172312
0	5174	0.0030809124000370502
0	5200	0.004995580762624741
0	5210	0.001917545567266643
0	5278	0.013021663762629032
0	5304	0.00497062224894762
0	5442	0.026343585923314095
0	5980	0.10247749835252762
0	7386	0.2664123475551605
0	7810	0.07924740016460419
1	5152	-0.48889651894569397
0	2652	-0.4601114094257355
0	3252	0.11218727380037308
0	4964	0.3241073787212372
0	5550	0.11112656444311142
0	5620	0.013249044306576252
0	5650	0.00566386803984642
0	5678	0.0052725402638316154
0	5652	-0.004882873501628637
0	5638	-0.002623786684125662
0	5624	-0.0026182252913713455
0	5574	-0.009331143461167812
0	5576	0.00037283755955286324
0	5572	-0.0007450084085576236
0	5598	0.00483702914789319
0	5610	0.002229129895567894
0	5620	0.0018534765113145113
0	5604	-0.0029567573219537735
0	5648	0.008106614463031292
0	5724	0.013958614319562912
0	5754	0.005491152871400118
0	5792	0.006930259522050619
0	5848	0.010174788534641266
0	5814	-0.0061534009873867035
0	5778	-0.006491711363196373
0	5708	-0.012584947980940342
0	5558	-0.026902614161372185
0	5360	-0.03548683971166611
0	5166	-0.03489920124411583
0	4942	-0.04083964228630066
0	4782	-0.02968864142894745
0	4710	-0.013390532694756985
0	4620	-0.01652730628848076
0	4636	0.002913788193836808
0	4644	0.0014598006382584572
0	4698	0.00990825705230236
0	4752	0.009964448399841785
0	4812	0.011133101768791676
0	4886	0.013804768212139606
0	4956	0.013121063821017742
0	5000	0.00828282069414854
0	5060	0.011339154094457626
0	5094	0.006446393672376871
0	5156	0.0117911072447896
0	5182	0.0049577318131923676
0	5200	0.003441375447437167
0	5236	0.006900782231241465
0	5248	0.0023059186059981585
0	5246	-0.0003851981309708208
0	5216	-0.005792922340333462
0	5204	-0.002324770437553525
0	5228	0.004666113760322332
0	5224	-0.0007805385976098478
0	5242	0.0035267379134893417
0	5222	-0.003933291416615248
0	5242	0.003947680350393057
0	5220	-0.00435580313205719
0	5222	0.0003968673700001091
0	5232	0.0019861499313265085
0	5292	0.011911693960428238
0	5354	0.012280307710170746
0	5350	-0.0007892971625551581
0	5350	0.0
0	5434	0.016427211463451385
0	5460	0.005058299750089645
0	5440	-0.0038705184124410152
0	5390	-0.009630200453102589
0	5358	-0.00613818597048521
0	5238	-0.022938117384910583
0	5158	-0.01525785680860281
0	5128	-0.0057143582962453365
0	5162	0.006471013650298119
0	5182	0.0038040168583393097
0	5238	0.010645308531820774
0	5214	-0.004559905733913183
0	5236	0.004179066512733698
0	5264	0.005317599978297949
0	5272	0.0015190449776127934
0	5388	0.022022807970643044
0	6080	0.131259486079216
0	8191	0.39824178814888
1	6458	-0.3209041357040405
0	2422	-0.7417254447937012
0	2956	0.09985103458166122
0	4496	0.2921221852302551
0	5410	0.17417596280574799
0	5614	0.03883371874690056
0	5638	0.0045572794042527676
0	5644	0.001136327744461596
0	5630	-0.002644553314894438
0	5614	-0.0030159279704093933
0	5608	-0.0011291283881291747
0	5586	-0.004133448004722595
0	5594	0.001500853686593473
0	5596	0.0003748383605852723
0	5578	-0.0033706813119351864
0	5604	0.004864571616053581
0	5628	0.0044843889772892
0	5610	-0.0033576451241970062
0	5666	0.010421901009976864
0	5718	0.00964707788079977
0	5792	0.013678626157343388
0	5866	0.013625734485685825
0	5888	0.004033958539366722
0	5908	0.0036527232732623816
0	5888	-0.003637355752289295
0	5824	-0.011593712493777275
0	5674	-0.027081189677119255
0	5544	-0.023413721472024918
0	5330	-0.03850652277469635
0	5084	-0.04446452856063843
0	4834	-0.046049565076828
0	4712	-0.022698519751429558
0	4588	-0.02274756319820881
0	4566	-0.00399597967043519
0	4616	0.009077925235033035
0	4644	0.005108184181153774
0	4710	0.012112165801227093
0	4764	0.0099665317684412
0	4820	0.010391924530267715
0	4830	0.0018650454003363848
0	4934	0.019491473212838173
0	4976	0.007904840633273125
0	5030	0.010202410630881786
0	5076	0.008721921592950821
0	5118	0.007989753037691116
0	5118	0.0
0	5152	0.006506927777081728
0	5178	0.004991041496396065
0	5176	-0.0003849905333481729
0	5216	0.0077240951359272
0	5206	-0.001937283668667078
0	5202	-0.0007778569706715643
0	5246	0.008593413978815079
0	5242	-0.0007844983483664691
0	5264	0.004333609249442816
0	5242	-0.004351438023149967
0	5210	-0.006353744771331549
0	5210	0.0
0	5238	0.005589045584201813
0	5248	0.0019973102025687695
0	5294	0.00917760655283928
0	5290	-0.0007956188055686653
0	5262	-0.0055480701848864555
0	5252	-0.0019726718310266733
0	5274	0.004320389591157436
0	5276	0.0003910781815648079
0	5258	-0.0035052644088864326
0	5332	0.014359451830387115
0	5386	0.010440162383019924
0	5324	-0.011943288147449493
0	5350	0.004992639180272818
0	5488	0.02642901986837387
0	5466	-0.00419959519058466
0	5384	-0.01560973096638918
0	5384	0.0
0	5306	-0.014794396236538887
0	5182	-0.023491375148296356
0	5152	-0.005682320334017277
0	5144	-0.0015155342407524586
0	5170	0.0049264817498624325
0	5158	-0.0022744215093553066
0	5198	0.007583704777061939
0	5214	0.0030335586052387953
0	5248	0.006447616498917341
0	5268	0.0037925716023892164
0	5352	0.015928396955132484
0	5960	0.11521115899085999
0	7974	0.3798375725746155
1	6696	-0.23691235482692719
0	2282	-0.8109498620033264
0	2846	0.10553628951311111
0	5102	0.4286908805370331
0	5546	0.08447059988975525
0	5632	0.016332007944583893
0	5600	-0.006062443368136883
0	5616	0.0030249941628426313
0	5638	0.004150473512709141
0	5600	-0.007151909172534943
0	5616	0.003006275510415435
0	5586	-0.0056286584585905075
0	5590	0.000749260070733726
0	5556	-0.0063591813668608665
0	5552	-0.0007478219922631979
0	5606	0.010090189054608345
0	5620	0.002612362615764141
0	5636	0.0029811812564730644
0	5690	0.010040907189249992
0	5772	0.015199447050690651
0	5790	0.003323731478303671
0	5870	0.014713635668158531
0	5898	0.005127766635268927
0	5918	0.003646219614893198
0	5848	-0.012706172652542591
0	5828	-0.003616462228819728
0	5676	-0.02738936059176922
0	5498	-0.031995970755815506
0	5290	-0.037355873733758926
0	5002	-0.05193181335926056
0	4820	-0.03341493383049965
0	4588	-0.043089572340250015
0	4502	-0.015748031437397003
0	4490	-0.0021754105109721422
0	4512	0.004003056790679693
0	4584	0.01318359375
0	4680	0.017691288143396378
0	4716	0.0066719381138682365
0	4814	0.01826404593884945
0	4864	0.009366336278617382
0	4932	0.012797028757631779
0	4972	0.007560103200376034
0	4990	0.003415257204324007
0	5042	0.009903881698846817
0	5078	0.006878980901092291
0	5096	0.0034499061293900013
0	5114	0.00346118351444602
0	5164	0.009645681828260422
0	5166	0.00038700189907103777
0	5158	-0.0015532572288066149
0	5204	0.008966861292719841
0	5240	0.007044366095215082
0	5178	-0.01218202244490385
0	5164	-0.002763812430202961
0	5206	0.008332781493663788
0	5204	-0.00039849107270129025
0	5212	0.001600597519427538
0	5250	0.0076264385133981705
0	5212	-0.007639112416654825
0	5258	0.009252182208001614
0	5278	0.004015795420855284
0	5270	-0.0016014091670513153
0	5290	0.003985386807471514
0	5280	-0.0019823177717626095
0	5302	0.004338452126830816
0	5274	-0.005493140313774347
0	5306	0.006249674595892429
0	5312	0.001167057896964252
0	5332	0.003875217866152525
0	5290	-0.008110822178423405
0	5302	0.0023110401816666126
0	5344	0.008069474250078201
0	5316	-0.005366863217204809
0	5328	0.0022953033912926912
0	5314	-0.0026729798410087824
0	5340	0.00495666079223156
0	5376	0.006852443795651197
0	5394	0.003420535707846284
0	5440	0.008728653192520142
0	5388	-0.009850101545453072
0	5438	0.00945751741528511
0	5540	0.019264910370111465
0	5454	-0.0162123441696167
0	5406	-0.00903308391571045
0	5376	-0.0056371199898421764
0	5272	-0.019521228969097137
0	5170	-0.019137678667902946
0	5100	-0.013137152418494225
0	5158	0.010895292274653912
0	5152	-0.0011274804128333926
0	5182	0.005641147494316101
0	5182	0.0
0	5216	0.0064006829634308815
0	5238	0.004143542144447565
0	5270	0.0060285599902272224
0	5278	0.0015074430266395211
0	5568	0.05464343726634979
0	6706	0.21407610177993774
0	8191	0.27693167328834534
1	3110	-0.9309896230697632
0	2828	-0.05236801132559776
0	4500	0.31532296538352966
0	5416	0.17367014288902283
0	5606	0.03600052744150162
0	5674	0.012861817143857479
0	5672	-0.00037743206485174596
0	5668	-0.0007532909512519836
0	5654	-0.0026316943112760782
0	5596	-0.01088500116020441
0	5624	0.005249704699963331
0	5594	-0.005616399925202131
0	5622	0.005236874800175428
0	5562	-0.01121614221483469
0	5548	-0.0026153395883738995
0	5638	0.016798043623566628
0	5654	0.0029814590234309435
0	5668	0.0026026014238595963
0	5732	0.011861003935337067
0	5796	0.011814875528216362
0	5862	0.012136443518102169
0	5926	0.011717677116394043
0	5926	0.0
0	5908	-0.0032659382559359074
0	5848	-0.010841087438166142
0	5750	-0.017642293125391006
0	5586	-0.029439041391015053
0	5320	-0.04766085371375084
0	5060	-0.04665490239858627
0	4824	-0.04276937618851662
0	4592	-0.0429173968732357
0	4514	-0.014298458583652973
0	4478	-0.006531994324177504
0	4484	0.0010888106189668179
0	4526	0.007664886303246021
0	4588	0.011389661580324173
0	4680	0.017013931646943092
0	4746	0.012280745431780815
0	4816	0.01309994701296091
0	4870	0.010158778168261051
0	4904	0.006425520870834589
0	4956	0.009872043505311012
0	4990	0.00648096390068531
0	5042	0.00995202548801899
0	5086	0.008448973298072815
0	5152	0.012711048126220703
0	5130	-0.004250276833772659
0	5152	0.004264668095856905
0	5172	0.00388994044624269
0	5158	-0.0027328806463629007
0	5164	0.0011761169880628586
0	5180	0.0031506812665611506
0	5176	-0.0007915463065728545
0	5212	0.007159335073083639
0	5222	0.001997922081500292
0	5194	-0.0056176017969846725
0	5244	0.010068871080875397
0	5234	-0.002018407918512821
0	5244	0.00201957649551332
0	5228	-0.003227324690669775
0	5250	0.0044255503453314304
0	5248	-0.00040055540739558637
0	5284	0.007174840196967125
0	5294	0.0019823964685201645
0	5306	0.0023662105668336153
0	5284	-0.004315925762057304
0	5302	0.003515213029459119
0	5292	-0.001945020630955696
0	5320	0.005426847375929356
0	5302	-0.0034773647785186768
0	5326	0.00462362403050065
0	5336	0.0019213034538552165
0	5356	0.0038332778494805098
0	5404	0.0091784056276083
0	5338	-0.012591254897415638
0	5448	0.020951848477125168
0	5496	0.009125474840402603
0	5460	-0.006828268989920616
0	5370	-0.017037494108080864
0	5390	0.0037813852541148663
0	5272	-0.022277602925896645
0	5174	-0.01848917081952095
0	5182	0.0015093769179657102
0	5176	-0.0011319901095703244
0	5182	0.0011322463396936655
0	5204	0.004152615088969469
0	5194	-0.0018874333472922444
0	5250	0.010572954080998898
0	5270	0.003775674384087324
0	5280	0.0018875285750254989
0	5366	0.01622743532061577
0	5840	0.08937437832355499
0	7412	0.2953073978424072
0	7374	-0.007044603116810322
1	4514	-0.5234707593917847
0	2554	-0.3604840934276581
0	3406	0.15936751663684845
0	4802	0.2642471492290497
0	5468	0.12645728886127472
0	5662	0.03680143877863884
0	5650	-0.0022712075151503086
0	5662	0.0022665741853415966
0	5658	-0.0007539772195741534
0	5636	-0.004139021039009094
0	5612	-0.004508735612034798
0	5586	-0.004876097198575735
0	5592	0.0011242832988500595
0	5564	-0.005243511404842138
0	5562	-0.00037429353687912226
0	5576	0.0026169202756136656
0	5578	0.0003734130004886538
0	5626	0.008944876492023468
0	5598	-0.005203235894441605
0	5644	0.008526202291250229
0	5734	0.01663360372185707
0	5790	0.01031472161412239
0	5810	0.0036706228274852037
0	5834	0.004388210363686085
0	5832	-0.00036438723327592015
0	5742	-0.016341648995876312
0	5692	-0.00905337929725647
0	5570	-0.02204686589539051
0	5376	-0.03511524200439453
0	5172	-0.03738454729318619
0	4934	-0.044209979474544525
0	4706	-0.04224256053566933
0	4616	-0.016455989331007004
0	4538	-0.014157449826598167
0	4550	0.0021815537475049496
0	4588	0.006946898531168699
0	4690	0.018769782036542892
0	4702	0.0022212897893041372
0	4788	0.01601410284638405
0	4866	0.014603277668356895
0	4888	0.0041387612000107765
0	4948	0.011339010670781136
0	5036	0.016697658225893974
0	5058	0.004189146216958761
0	5078	0.0038205855526030064
0	5126	0.009197751991450787
0	5166	0.007686887867748737
0	5182	0.003082891460508108
0	5180	-0.0003864634782075882
0	5172	-0.001550027052871883
0	5194	0.004275608342140913
0	5200	0.0011701685143634677
0	5208	0.0015662320656701922
0	5210	0.0003931023529730737
0	5216	0.0011841482482850552
0	5220	0.0007926442776806653
0	5218	-0.00039769336581230164
0	5238	0.003989467862993479
0	5216	-0.004398123361170292
0	5224	0.0016010247636586428
0	5250	0.005201525986194611
0	5306	0.01117972657084465
0	5334	0.005567633081227541
0	5340	0.001187413465231657
0	5370	0.005905821919441223
0	5442	0.014098111540079117
0	5410	-0.0062310961075127125
0	5386	-0.004651583731174469
0	5368	-0.0034733389038592577
0	5280	-0.016917655244469643
0	5152	-0.02454238571226597
0	5180	0.005359604023396969
0	5158	-0.00420489301905036
0	5170	0.0022917964961379766
0	5204	0.0064887977205216885
0	5202	-0.0003813882649410516
0	5236	0.006480469834059477
0	5258	0.004191380925476551
0	5262	0.0007617016672156751
0	5340	0.014845455065369606
0	5834	0.09392111003398895
0	7132	0.24578367173671722
0	8068	0.175101637840271
1	5414	-0.4877959191799164
0	2812	-0.4776415228843689
0	3312	0.09315381199121475
0	4582	0.2394479513168335
0	5422	0.1590106040239334
0	5626	0.038572076708078384
0	5642	0.0030174634885042906
0	5624	-0.003385749878361821
0	5586	-0.007130972109735012
0	5584	-0.00037465812056325376
0	5574	-0.0018703709356486797
0	5592	0.0033617629669606686
0	5598	0.0011190411169081926
0	5572	-0.0048444801941514015
0	5524	-0.00893466453999281
0	5540	0.002975673880428076
0	5584	0.00817438680678606
0	5562	-0.004079513717442751
0	5606	0.008138402365148067
0	5640	0.006272291298955679
0	5690	0.009196698665618896
0	5692	0.0003666988341137767
0	5754	0.011333861388266087
0	5772	0.0032794452272355556
0	5762	-0.0018160025356337428
0	5714	-0.008690299466252327
0	5662	-0.009388879872858524
0	5506	-0.02811216004192829
0	5366	-0.025278666988015175
0	5128	-0.043435413390398026
0	4984	-0.026758836582303047
0	4804	-0.03353787213563919
0	4688	-0.021349169313907623
0	4658	-0.005475118290632963
0	4672	0.0025538746267557144
0	4684	0.002199064241722226
0	4734	0.009215797297656536
0	4812	0.014457294717431068
0	4878	0.012294776737689972
0	4978	0.018710708245635033
0	4992	0.002629437018185854
0	5032	0.007540151476860046
0	5064	0.006053421646356583
0	5116	0.009870043955743313
0	5156	0.007614309899508953
0	5208	0.009921770542860031
0	5182	-0.004971382673829794
0	5220	0.007284531369805336
0	5212	-0.001536944299004972
0	5214	0.0003852080262731761
0	5256	0.008111553266644478
0	5220	-0.0069722398184239864
0	5224	0.0007770611555315554
0	5228	0.0007797372527420521
0	5280	0.010172542184591293
0	5352	0.01412946730852127
0	5262	-0.01770375855267048
0	5296	0.006705673411488533
0	5350	0.01066491100937128
0	5398	0.009480919688940048
0	5328	-0.01380180660635233
0	5324	-0.0007868955726735294
0	5272	-0.010194879025220871
0	5158	-0.02226533368229866
0	5152	-0.0011680575553327799
0	5130	-0.004269578494131565
0	5152	0.0042572952806949615
0	5172	0.0038598612882196903
0	5162	-0.0019254714716225863
0	5182	0.003843936137855053
0	5194	0.002303351415321231
0	5248	0.010351702570915222
0	5266	0.0034458113368600607
0	5288	0.004206125624477863
0	5808	0.09930865466594696
0	6872	0.20236088335514069
0	7864	0.18669778108596802
1	5422	-0.4519878625869751
0	2830	-0.479154109954834
0	3368	0.10093556344509125
0	4496	0.21409861743450165
0	5412	0.17470024526119232
0	5556	0.02743031457066536
0	5584	0.005322451703250408
0	5604	0.003793194890022278
0	5584	-0.0037854411639273167
0	5552	-0.006047853734344244
0	5588	0.006791427731513977
0	5552	-0.006778980139642954
0	5554	0.000376133102690801
0	5534	-0.0037576560862362385
0	5542	0.0015011257492005825
0	5590	0.008994490839540958
0	5572	-0.0033662475179880857
0	5598	0.0048498413525521755
0	5626	0.005208462476730347
0	5634	0.001483569503761828
0	5700	0.012203088961541653
0	5740	0.007371821906417608
0	5726	-0.0025710086338222027
0	5728	0.0003660679212771356
0	5716	-0.002189275110140443
0	5618	-0.017828337848186493
0	5550	-0.01234433427453041
0	5392	-0.028637021780014038
0	5200	-0.034887101501226425
0	5012	-0.03450976684689522
0	4868	-0.02690248005092144
0	4772	-0.017997074872255325
0	4696	-0.014076855033636093
0	4728	0.005878894589841366
0	4746	0.0033021869603544474
0	4772	0.004789330996572971
0	4766	-0.0011105763260275126
0	4856	0.016743147745728493
0	4916	0.011214114725589752
0	4956	0.007507319562137127
0	5012	0.010549583472311497
0	5062	0.00945346336811781
0	5132	0.01327584683895111
0	5182	0.00950811430811882
0	5178	-0.0007623501005582511
0	5226	0.009169405326247215
0	5210	-0.003063569078221917
0	5240	0.005757494363933802
0	5216	-0.0046165683306753635
0	5208	-0.001542912214063108
0	5244	0.00696217268705368
0	5222	-0.00426720455288887
0	5260	0.007395393680781126
0	5274	0.0027328806463629007
0	5264	-0.001957841217517853
0	5284	0.0039272671565413475
0	5338	0.01062685251235962
0	5422	0.01655368134379387
0	5364	-0.01142767071723938
0	5322	-0.008266306482255459
0	5320	-0.00039283468504436314
0	5218	-0.019975455477833748
0	5152	-0.012887772172689438
0	5074	-0.015185929834842682
0	5118	0.008547229692339897
0	5152	0.006588806863874197
0	5180	0.00541278999298811
0	5160	-0.0038559914100915194
0	5204	0.00846664048731327
0	5202	-0.0003841376747004688
0	5230	0.0053694709204137325
0	5230	0.0
0	5470	0.045910757035017014
0	6740	0.2424219399690628
0	7978	0.2339940220117569
1	5772	-0.40972745418548584
0	2944	-0.5234839916229248
0	3402	0.08598139882087708
0	4766	0.259046345949173
0	5400	0.12075116485357285
0	5546	0.02777319774031639
0	5594	0.009113462641835213
0	5582	-0.0022730142809450626
0	5574	-0.001512268208898604
0	5598	0.004528244957327843
0	5562	-0.006778128910809755
0	5542	-0.0037590686697512865
0	5534	-0.0015017081750556827
0	5580	0.008628775365650654
0	5566	-0.002622606698423624
0	5530	-0.006733586546033621
0	5514	-0.002988792024552822
0	5556	0.007831145077943802
0	5580	0.0044637322425842285
0	5620	0.007416288834065199
0	5680	0.01109002623707056
0	5728	0.00884325336664915
0	5754	0.004774029366672039
0	5732	-0.0040249302983284
0	5678	-0.009847665205597878
0	5640	-0.006909844931215048
0	5524	-0.021040920168161392
0	5390	-0.02426276169717312
0	5164	-0.0409405454993248
0	4988	-0.03218923509120941
0	4846	-0.026453055441379547
0	4756	-0.016862984746694565
0	4706	-0.00926349125802517
0	4698	-0.001470317947678268
0	4762	0.01176744606345892
0	4792	0.005537643563002348
0	4822	0.005563454236835241
0	4868	0.008571535348892212
0	4896	0.005240697879344225
0	4992	0.01804443448781967
0	5046	0.010188679210841656
0	5052	0.001135761383920908
0	5106	0.01025355327874422
0	5152	0.008758233860135078
0	5174	0.004200130235403776
0	5216	0.008038482628762722
0	5236	0.00383553234860301
0	5250	0.0026896526105701923
0	5226	-0.004619886167347431
0	5246	0.0038586698938161135
0	5246	0.0
0	5232	-0.002715177834033966
0	5224	-0.0015565212815999985
0	5268	0.008590394631028175
0	5316	0.009399723261594772
0	5282	-0.006673907395452261
0	5288	0.0011805136455222964
0	5346	0.011429322883486748
0	5410	0.012615310959517956
0	5336	-0.01456291601061821
0	5338	0.0003926958597730845
0	5270	-0.013308803550899029
0	5102	-0.032770685851573944
0	5092	-0.0019456262234598398
0	5154	0.012032137252390385
0	5138	-0.003097214037552476
0	5172	0.006566917989403009
0	5196	0.004625049885362387
0	5228	0.006153766997158527
0	5238	0.0019189683953300118
0	5220	-0.0034487161319702864
0	5248	0.005358715075999498
0	5498	0.0477859191596508
0	6634	0.216598242521286
0	8012	0.2602881193161011
1	5412	-0.48248815536499023
0	3010	-0.44520506262779236
0	3984	0.18304599821567535
0	5182	0.22694264352321625
0	5544	0.06859438121318817
0	5600	0.010591350495815277
0	5574	-0.0049064625054597855
0	5560	-0.0026362701319158077
0	5592	0.006013078149408102
0	5558	-0.0063759563490748405
0	5530	-0.005242856685072184
0	5526	-0.0007478219922631979
0	5542	0.0029868579003959894
0	5550	0.0014916096115484834
0	5552	0.00037257824442349374
0	5564	0.002232474973425269
0	5576	0.002229350619018078
0	5624	0.0089005371555686
0	5656	0.005914607550948858
0	5694	0.0069992756471037865
0	5750	0.010280637070536613
0	5758	0.0014631827361881733
0	5752	-0.0010934803867712617
0	5730	-0.00399593124166131
0	5676	-0.009778475388884544
0	5578	-0.017699329182505608
0	5400	-0.03207862377166748
0	5230	-0.03060893900692463
0	5012	-0.03931469842791557
0	4840	-0.031324367970228195
0	4730	-0.020426353439688683
0	4670	-0.011188880540430546
0	4652	-0.003322381991893053
0	4688	0.006617565639317036
0	4776	0.016225384548306465
0	4806	0.005557613912969828
0	4840	0.006329664029181004
0	4930	0.01683165691792965
0	4964	0.006383697502315044
0	5024	0.011309800669550896
0	5056	0.0060522002167999744
0	5114	0.011002491228282452
0	5132	0.003423485206440091
0	5152	0.0038137855008244514
0	5178	0.004970495589077473
0	5246	0.01303081400692463
0	5264	0.0034563541412353516
0	5244	-0.0038480779621750116
0	5230	-0.002700235228985548
0	5236	0.0011604218743741512
0	5222	-0.0027156693395227194
0	5228	0.0011678453302010894
0	5246	0.0035156249068677425
0	5232	-0.00274341250769794
0	5222	-0.001965975621715188
0	5230	0.0015774737112224102
0	5242	0.002371635288000107
0	5292	0.009892110712826252
0	5328	0.007119408342987299
0	5282	-0.009078111499547958
0	5358	0.014955134131014347
0	5424	0.01293407566845417
0	5384	-0.007800413761287928
0	5360	-0.00465808343142271
0	5350	-0.001932466751895845
0	5284	-0.012707295827567577
0	5156	-0.024569083005189896
0	5116	-0.00766234565526247
0	5182	0.012627873569726944
0	5162	-0.0038213154766708612
0	5182	0.003817959688603878
0	5182	0.0
0	5238	0.01067710667848587
0	5242	0.0007621370605193079
0	5248	0.0011425524717196822
0	5268	0.0038068166468292475
0	5544	0.05252673849463463
0	6342	0.15160150825977325
0	8094	0.33054110407829285
1	5842	-0.4173564910888672
0	2628	-0.5934195518493652
0	3138	0.095691978931427
0	4238	0.20912814140319824
0	5326	0.20817653834819794
0	5610	0.054307639598846436
0	5594	-0.0030520372092723846
0	5644	0.009515592828392982
0	5646	0.0003796555392909795
0	5600	-0.00871256086975336
0	5580	-0.003781576408073306
0	5574	-0.0011323461076244712
0	5532	-0.00791566725820303
0	5536	0.0007533619063906372
0	5560	0.004515862092375755
0	5536	-0.004510204307734966
0	5578	0.007883671671152115
0	5598	0.0037472364492714405
0	5604	0.0011210762895643711
0	5662	0.010804232209920883
0	5756	0.017458273097872734
0	5810	0.009992474690079689
0	5844	0.006267281249165535
0	5856	0.0022030205000191927
0	5800	-0.010242029093205929
0	5738	-0.011300945654511452
0	5612	-0.022898266091942787
0	5430	-0.033006489276885986
0	5224	-0.0373847596347332
0	4970	-0.04640964791178703
0	4788	-0.03389914706349373
0	4664	-0.023248255252838135
0	4616	-0.008886255323886871
0	4610	-0.0011007423745468259
0	4638	0.005125138908624649
0	4686	0.008822988718748093
0	4736	0.009242941625416279
0	4794	0.010778799653053284
0	4890	0.01793520897626877
0	4924	0.006382100284099579
0	4970	0.008671282790601254
0	5040	0.0132462028414011
0	5062	0.0041771624237298965
0	5136	0.014092374593019485
0	5152	0.003054756438359618
0	5152	0.0
0	5182	0.005756684113293886
0	5202	0.003847535001114011
0	5216	0.0027001311536878347
0	5224	0.0015467903576791286
0	5204	-0.0038779231254011393
0	5228	0.0046701692044734955
0	5220	-0.001562622026540339
0	5236	0.0031379933934658766
0	5200	-0.007089219056069851
0	5216	0.003163222223520279
0	5236	0.003967676777392626
0	5210	-0.005170836113393307
0	5208	-0.0003983376082032919
0	5250	0.008365978486835957
0	5280	0.005964610259979963
0	5284	0.0007926966063678265
0	5266	-0.0035525846760720015
0	5280	0.002751355990767479
0	5278	-0.00039133327663876116
0	5284	0.001169119612313807
0	5330	0.008928571827709675
0	5374	0.008507676422595978
0	5346	-0.00539381243288517
0	5360	0.002689032582566142
0	5456	0.018387751653790474
0	5404	-0.00992922205477953
0	5400	-0.0007620208780281246
0	5362	-0.0072236936539411545
0	5286	-0.014426727779209614
0	5182	-0.01972511224448681
0	5154	-0.005309599917382002
0	5168	0.002655270043760538
0	5178	0.001897029229439795
0	5158	-0.0037949704565107822
0	5174	0.003037244314327836
0	5210	0.006835097447037697
0	5210	0.0
0	5246	0.006836308166384697
0	5242	-0.0007595416973344982
0	5410	0.03189227357506752
0	5980	0.10807325690984726
0	7492	0.28533685207366943
0	7238	-0.047255225479602814
1	4760	-0.4552859365940094
0	2888	-0.3449800908565521
0	4350	0.2734414041042328
0	5362	0.19038541615009308
0	5542	0.03384264558553696
0	5622	0.015016517601907253
0	5616	-0.0011238200822845101
0	5608	-0.0014953271020203829
0	5586	-0.004105039406567812
0	5604	0.003354245563969016
0	5544	-0.011162929236888885
0	5528	-0.002973387949168682
0	5566	0.007058648392558098
0	5550	-0.002969084307551384
0	5548	-0.00037079150206409395
0	5564	0.0029629261698573828
0	5614	0.009243282489478588
0	5638	0.004424996208399534
0	5670	0.0058824969455599785
0	5722	0.00952974334359169
0	5808	0.015708526596426964
0	5826	0.003274870803579688
0	5866	0.007248828187584877
0	5864	-0.00036101083969697356
0	5820	-0.007911108434200287
0	5740	-0.014334520325064659
0	5592	-0.026440218091011047
0	5380	-0.037832822650671005
0	5050	-0.059101652354002
0	4852	-0.03598560392856598
0	4628	-0.04130809009075165
0	4542	-0.015872234478592873
0	4532	-0.001827017986215651
0	4548	0.002919992199167609
0	4612	0.011738093569874763
0	4662	0.009222823195159435
0	4722	0.011133101768791676
0	4802	0.014926672913134098
0	4872	0.013126641511917114
0	4930	0.010925118811428547
0	4984	0.010214891284704208
0	5030	0.008732408285140991
0	5054	0.004570441786199808
0	5070	0.003056896384805441
0	5118	0.009198809042572975
0	5152	0.006533770356327295
0	5170	0.0034682080149650574
0	5176	0.001159375417046249
0	5208	0.006201791111379862
0	5210	0.0003887722559738904
0	5230	0.0039006629958748817
0	5202	-0.005481525789946318
0	5218	0.0031451075337827206
0	5212	-0.001184444292448461
0	5214	0.0003965159703511745
0	5228	0.0027867720928043127
0	5224	-0.0007989347795955837
0	5248	0.004805382341146469
0	5262	0.0028056111186742783
0	5246	-0.0032018783967942
0	5256	0.00199592811986804
0	5264	0.0015900989528745413
0	5284	0.003956322092562914
0	5290	0.0011810404248535633
0	5292	0.0003917727735824883
0	5314	0.00429045083001256
0	5312	-0.0003883947792928666
0	5306	-0.0011607510969042778
0	5304	-0.0003856635885313153
0	5318	0.0026921697426587343
0	5304	-0.0026854905299842358
0	5300	-0.0007657163077965379
0	5358	0.01108379103243351
0	5396	0.0072477590292692184
0	5362	-0.006471424363553524
0	5384	0.004180919844657183
0	5476	0.01745818927884102
0	5512	0.006818267982453108
0	5448	-0.012095707468688488
0	5396	-0.009812925010919571
0	5314	-0.015456144697964191
0	5196	-0.022230036556720734
0	5192	-0.0007535889744758606
0	5166	-0.004899127874523401
0	5178	0.0022617897484451532
0	5182	0.0007541003869846463
0	5174	-0.0015086369821801782
0	5214	0.007545556407421827
0	5248	0.006415094248950481
0	5274	0.004906092304736376
0	5266	-0.001509301015175879
0	5526	0.04904920235276222
0	6556	0.19399069249629974
0	8191	0.30549708008766174
1	6326	-0.34228765964508057
0	2494	-0.6988747119903564
0	2592	0.018184853717684746
0	4260	0.31481003761291504
0	5414	0.21924296021461487
0	5608	0.03683147951960564
0	5666	0.010991302318871021
0	5672	0.0011344370432198048
0	5644	-0.005281656980514526
0	5634	-0.001882920041680336
0	5620	-0.002632156014442444
0	5612	-0.0015016612596809864
0	5564	-0.008997132070362568
0	5590	0.004870768170803785
0	5574	-0.0029959366656839848
0	5556	-0.003367780474945903
0	5574	0.003364423057064414
0	5600	0.004851862788200378
0	5656	0.01042397040873766
0	5694	0.007053102366626263
0	5748	0.00999019481241703
0	5810	0.011430046521127224
0	5864	0.009916930459439754
0	5878	0.002560241846367717
0	5882	0.0007285487954504788
0	5848	-0.006168919615447521
0	5734	-0.02061246708035469
0	5546	-0.033896878361701965
0	5330	-0.0389406718313694
0	5054	-0.050126831978559494
0	4828	-0.041840486228466034
0	4616	-0.03961481526494026
0	4502	-0.021024418994784355
0	4436	-0.01203077007085085
0	4430	-0.0010925380047410727
0	4478	0.008792819455265999
0	4534	0.010329562239348888
0	4602	0.012630953453481197
0	4712	0.020568694919347763
0	4762	0.009404035285115242
0	4846	0.015885623171925545
0	4898	0.00988217443227768
0	4946	0.009163452312350273
0	4988	0.008049678057432175
0	5030	0.008080756291747093
0	5060	0.005792176816612482
0	5074	0.002711671870201826
0	5076	0.0003886362537741661
0	5138	0.012088755145668983
0	5140	0.00039127710624597967
0	5172	0.006283133756369352
0	5168	-0.0007883638027124107
0	5194	0.005146069452166557
0	5178	-0.003180872183293104
0	5174	-0.0007989241275936365
0	5194	0.00401353882625699
0	5198	0.0008062348351813853
0	5194	-0.0008091487688943744
0	5182	-0.0024332215543836355
0	5222	0.008118860423564911
0	5218	-0.0008109642658382654
0	5222	0.0008088324684649706
0	5236	0.002819397486746311
0	5260	0.0048095546662807465
0	5270	0.0019930112175643444
0	5282	0.0023783412761986256
0	5270	-0.002365774940699339
0	5254	-0.003139183623716235
0	5266	0.0023443910758942366
0	5322	0.010901162400841713
0	5274	-0.009310023859143257
0	5290	0.003094777464866638
0	5272	-0.0034728473983705044
0	5296	0.004620775580406189
0	5266	-0.005764574743807316
0	5302	0.006907048635184765
0	5350	0.009195167571306229
0	5394	0.008414073847234249
0	5356	-0.007252001203596592
0	5376	0.003811556613072753
0	5512	0.025879785418510437
0	5422	-0.017089473083615303
0	5392	-0.005687347613275051
0	5330	-0.011739162728190422
0	5254	-0.014376151375472546
0	5118	-0.025712771341204643
0	5134	0.003026481717824936
0	5118	-0.0030277036130428314
0	5164	0.008708822540938854
0	5180	0.003029499901458621
0	5166	-0.002651515183970332
0	5182	0.0030312982853502035
0	5218	0.006822144612669945
0	5238	0.0037905110511928797
0	5402	0.03108651004731655
0	6064	0.1253787875175476
0	8072	0.3784347176551819
1	6736	-0.24743184447288513
0	2302	-0.8137471675872803
0	2516	0.039999499917030334
0	4428	0.3637378215789795
0	5416	0.18897034227848053
0	5616	0.038222406059503555
0	5696	0.01525553036481142
0	5728	0.006086735986173153
0	5720	-0.0015172396088019013
0	5650	-0.013240857981145382
0	5636	-0.0026431719306856394
0	5610	-0.0049012829549610615
0	5592	-0.003387788776308298
0	5604	0.002255469560623169
0	5598	-0.0011270850664004683
0	5588	-0.00187640730291605
0	5594	0.0011244658380746841
0	5624	0.00561307230964303
0	5654	0.005600149277597666
0	5674	0.0037210225127637386
0	5748	0.0137218302115798
0	5812	0.011821495369076729
0	5838	0.0047833980061113834
0	5900	0.011360721662640572
0	5916	0.002918713726103306
0	5876	-0.007264362182468176
0	5784	-0.01664174534380436
0	5666	-0.021274805068969727
0	5466	-0.03600187227129936
0	5206	-0.046970974653959274
0	4942	-0.048531197011470795
0	4710	-0.04312267526984215
0	4554	-0.028570033609867096
0	4500	-0.009768097661435604
0	4466	-0.006147615145891905
0	4518	0.009456380270421505
0	4600	0.015011899173259735
0	4658	0.010689668357372284
0	4688	0.005565725266933441
0	4762	0.01381696853786707
0	4822	0.011265208013355732
0	4900	0.014719758182764053
0	4976	0.01440667174756527
0	5028	0.009895714931190014
0	5072	0.008404003456234932
0	5082	0.0019164185505360365
0	5130	0.009228639304637909
0	5152	0.00424240855500102
0	5168	0.003094777464866638
0	5174	0.0011641895398497581
0	5166	-0.0015572888078168035
0	5162	-0.0007815959979780018
0	5162	0.0
0	5182	0.003942025825381279
0	5182	0.0
0	5200	0.0035819944459944963
0	5222	0.004397713113576174
0	5240	0.0036116535775363445
0	5222	-0.003621973330155015
0	5250	0.005643416661769152
0	5248	-0.00040298205567523837
0	5268	0.004021555185317993
0	5292	0.004807885270565748
0	5302	0.001993461512029171
0	5296	-0.0011897365329787135
0	5306	0.0019720755517482758
0	5342	0.007062885444611311
0	5322	-0.003904877230525017
0	5334	0.002332845237106085
0	5318	-0.0030974934343248606
0	5346	0.005401234608143568
0	5390	0.008459152653813362
0	5400	0.0019165165722370148
0	5380	-0.0038226789329200983
0	5416	0.006865425035357475
0	5512	0.018267853185534477
0	5530	0.0034159054048359394
0	5444	-0.016279246658086777
0	5424	-0.00377890863455832
0	5310	-0.02150510437786579
0	5154	-0.008668232709169388
0	5182	0.005276580806821585
0	5198	0.0030148103833198547
0	5204	0.0011304402723908424
0	5182	-0.004144375212490559
0	5204	0.00414484366774559
0	5226	0.0041453116573393345
0	5262	0.00678383419290185
0	5318	0.010549980215728283
0	5596	0.052350759506225586
0	6450	0.16046801209449768
0	8178	0.32230788469314575
1	6566	-0.29537153244018555
0	2434	-0.7513182759284973
0	2716	0.05218099430203438
0	3638	0.17337563633918762
0	5080	0.2740854322910309
0	5586	0.09632468223571777
0	5698	0.021286839619278908
0	5712	0.0026544646825641394
0	5718	0.0011350021231919527
0	5696	-0.00415308540686965
0	5700	0.0007537025958299637
0	5664	-0.006769717205315828
0	5652	-0.0022530697751790285
0	5628	-0.004502194933593273
0	5604	-0.004499437753111124
0	5620	0.002996628638356924
0	5610	-0.001870604115538299
0	5612	0.0003734222846105695
0	5654	0.007821811363101006
0	5666	0.002227888209745288
0	5670	0.0007404116913676262
0	5714	0.008120877668261528
0	5792	0.014351073652505875
0	5812	0.0036660474725067616
0	5834	0.004017726518213749
0	5820	-0.0025473071727901697
0	5772	-0.008704166859388351
0	5702	-0.01265883818268776
0	5616	-0.015542356297373772
0	5414	-0.03669080510735512
0	5170	-0.04507388919591904
0	4958	-0.03950212523341179
0	4774	-0.03375568985939026
0	4658	-0.02101626992225647
0	4600	-0.010443801991641521
0	4606	0.0010835150023922324
0	4672	0.011989391408860683
0	4716	0.00804289523512125
0	4740	0.004413819871842861
0	4842	0.018871881067752838
0	4898	0.010415892116725445
0	4968	0.013084927573800087
0	5016	0.009011602029204369
0	5060	0.008293645456433296
0	5128	0.012863357551395893
0	5154	0.004933149553835392
0	5180	0.004947731737047434
0	5172	-0.0015265427064150572
0	5182	0.0019135338952764869
0	5192	0.001919312053360045
0	5172	-0.003850300330668688
0	5210	0.00733902445062995
0	5214	0.0007750436197966337
0	5182	-0.006223582196980715
0	5212	0.0058585358783602715
0	5210	-0.0003921568568330258
0	5212	0.00039372663013637066
0	5238	0.005137324798852205
0	5248	0.0019819510634988546
0	5294	0.009139194153249264
0	5300	0.0011930168839171529
0	5310	0.0019866495858877897
0	5392	0.01625264249742031
0	5460	0.013422995805740356
0	5384	-0.014923419803380966
0	5370	-0.002735016169026494
0	5332	-0.0073868646286427975
0	5182	-0.029034506529569626
0	5166	-0.003087730146944523
0	5152	-0.002694380236789584
0	5170	0.0034573276061564684
0	5182	0.0023008782882243395
0	5182	0.0
0	5222	0.0076510114595294
0	5246	0.0045858705416321754
0	5294	0.009164853021502495
0	5294	0.0
0	5470	0.03355022519826889
0	6198	0.13851365447044373
0	8162	0.3712899386882782
1	6398	-0.32735371589660645
0	2634	-0.6932455897331238
0	3060	0.07972054183483124
0	3896	0.15857760608196259
0	5176	0.24478867650032043
0	5610	0.08301771432161331
0	5656	0.008776728063821793
0	5672	0.0030441787093877792
0	5668	-0.0007589556626044214
0	5630	-0.007190977223217487
0	5620	-0.0018883601296693087
0	5604	-0.003015302587300539
0	5574	-0.00564326997846365
0	5550	-0.004509469959884882
0	5528	-0.004131352063268423
0	5574	0.008630502037703991
0	5570	-0.0007495221798308194
0	5580	0.0018710241420194507
0	5604	0.004479339346289635
0	5618	0.002605847083032131
0	5660	0.007795003242790699
0	5666	0.0011102064745500684
0	5724	0.010700054466724396
0	5782	0.010664508678019047
0	5726	-0.01026154775172472
0	5724	-0.00036541250301524997
0	5610	-0.020774109289050102
0	5500	-0.02000679075717926
0	5342	-0.028731800615787506
0	5202	-0.02559134177863598
0	5000	-0.037602849304676056
0	4884	-0.02178267389535904
0	4770	-0.02110980823636055
0	4700	-0.012826777063310146
0	4672	-0.0051056379452347755
0	4744	0.013169125653803349
0	4740	-0.0007355014095082879
0	4786	0.00850602239370346
0	4820	0.006321582943201065
0	4906	0.016074365004897118
0	4986	0.01502065360546112
0	5018	0.006032196804881096
0	5084	0.012487386353313923
0	5138	0.010248623788356781
0	5152	0.0026639942079782486
0	5180	0.005340725649148226
0	5198	0.003441945882514119
0	5220	0.0042168209329247475
0	5196	-0.004610773641616106
0	5200	0.000770475366152823
0	5226	0.005021566990762949
0	5232	0.0011620699660852551
0	5252	0.0038844505324959755
0	5330	0.015195791609585285
0	5290	-0.007815655320882797
0	5306	0.0031351649668067694
0	5398	0.018076550215482712
0	5372	-0.005115693435072899
0	5304	-0.013390746898949146
0	5304	0.0
0	5242	-0.012204083614051342
0	5088	-0.030265312641859055
0	5098	0.0019626570865511894
0	5082	-0.003133527236059308
0	5088	0.0011721497867256403
0	5138	0.009741525165736675
0	5152	0.002720665419474244
0	5158	0.0011628959327936172
0	5204	0.008894159458577633
0	5244	0.007714957930147648
0	5266	0.004234026186168194
0	5498	0.04456967115402222
0	6302	0.15398365259170532
0	7712	0.26796236634254456
0	7070	-0.12005086243152618
1	4090	-0.5506621599197388
0	3006	-0.20166189968585968
0	3542	0.10108884423971176
0	4876	0.25427281856536865
0	5498	0.11880053579807281
0	5580	0.01563214883208275
0	5598	0.00342374574393034
0	5568	-0.005693031474947929
0	5562	-0.0011363349622115493
0	5546	-0.003025794867426157
0	5550	0.0007552299648523331
0	5546	-0.0007540719816461205
0	5506	-0.00753371324390173
0	5540	0.0063982740975916386
0	5522	-0.0033823144622147083
0	5524	0.0003753002383746207
0	5570	0.008616706356406212
0	5558	-0.002241091802716255
0	5624	0.01229080744087696
0	5638	0.0025983990635722876
0	5720	0.015167583711445332
0	5716	-0.0007372366380877793
0	5708	-0.0014693817356601357
0	5686	-0.004027239046990871
0	5624	-0.011316209100186825
0	5556	-0.012382698245346546
0	5422	-0.024358320981264114
0	5258	-0.02982541359961033
0	5080	-0.03257765993475914
0	4916	-0.030505195260047913
0	4810	-0.01998366042971611
0	4718	-0.017266185954213142
0	4650	-0.012626731768250465
0	4684	0.006270362995564938
0	4698	0.0025849654339253902
0	4716	0.0033399721141904593
0	4754	0.007088935002684593
0	4822	0.012752390466630459
0	4926	0.019595036283135414
0	4912	-0.002648371970281005
0	4986	0.01405472494661808
0	5026	0.007624372374266386
0	5050	0.004589787684381008
0	5096	0.00882274005562067
0	5152	0.010771302506327629
0	5182	0.00578406173735857
0	5180	-0.000386453524697572
0	5204	0.004649120382964611
0	5200	-0.0007766286144033074
0	5174	-0.005061976611614227
0	5200	0.005077265668660402
0	5258	0.011364676058292389
0	5284	0.005109795369207859
0	5270	-0.0027590917889028788
0	5334	0.012647555209696293
0	5342	0.0015839701518416405
0	5316	-0.005155184306204319
0	5284	-0.00634929072111845
0	5302	0.0035708618815988302
0	5212	-0.017828136682510376
0	5066	-0.0288647823035717
0	5092	0.005131646525114775
0	5136	0.00866300892084837
0	5102	-0.0066728596575558186
0	5128	0.005088859237730503
0	5172	0.008587824180722237
0	5182	0.001946004806086421
0	5182	0.0
0	5238	0.01084220688790083
0	5272	0.006569540593773127
0	5702	0.08289316296577454
0	6752	0.2014865279197693
0	7962	0.22965382039546967
1	5440	-0.4700079560279846
0	2866	-0.478675901889801
0	3464	0.11280606687068939
0	4684	0.23265275359153748
0	5406	0.1381201297044754
0	5554	0.028276290744543076
0	5590	0.0068625458516180515
0	5610	0.003802474122494459
0	5568	-0.007964501157402992
0	5560	-0.0015140809118747711
0	5550	-0.0018893115920946002
0	5548	-0.00037719716783612967
0	5536	-0.002260142471641302
0	5518	-0.0033860893454402685
0	5554	0.006763611454516649
0	5532	-0.0041263410821557045
0	5568	0.006742498837411404
0	5588	0.0037375260144472122
0	5614	0.00484303617849946
0	5632	0.0033420391846448183
0	5660	0.005182817578315735
0	5698	0.007009690161794424
0	5750	0.009558705613017082
0	5710	-0.007326901890337467
0	5678	-0.005842685699462891
0	5656	-0.004004756920039654
0	5572	-0.015252206474542618
0	5444	-0.023199332877993584
0	5272	-0.031222771853208542
0	5068	-0.03736628592014313
0	4958	-0.020510908216238022
0	4828	-0.024313002824783325
0	4738	-0.0166286863386631
0	4686	-0.009532888419926167
0	4712	0.00476638600230217
0	4730	0.003313859226182103
0	4806	0.014062962494790554
0	4852	0.008553153835237026
0	4868	0.002989052562043071
0	4950	0.015385963022708893
0	5006	0.010547728277742863
0	5050	0.008315903134644032
0	5130	0.015167409554123878
0	5174	0.00836353562772274
0	5202	0.005333874840289354
0	5202	0.0
0	5226	0.004591777920722961
0	5274	0.009203629568219185
0	5234	-0.007685115095227957
0	5236	0.0003851931542158127
0	5258	0.004247924312949181
0	5276	0.0034845902118831873
0	5276	0.0
0	5340	0.012461706064641476
0	5300	-0.007807315792888403
0	5290	-0.001956640975549817
0	5422	0.025889459997415543
0	5378	-0.0086382906883955
0	5322	-0.010998939163982868
0	5326	0.0007853814167901874
0	5238	-0.01724926568567753
0	5130	-0.021130893379449844
0	5108	-0.004295979626476765
0	5124	0.0031168425921350718
0	5154	0.005827505607157946
0	5198	0.00852261669933796
0	5212	0.002703572390601039
0	5236	0.0046226149424910545
0	5260	0.004611246287822723
0	5288	0.005366314668208361
0	5288	0.0
0	5652	0.06948686391115189
0	6640	0.18788745999336243
0	8026	0.2610759735107422
1	5422	-0.4818771779537201
0	2678	-0.5070963501930237
0	3304	0.11751307547092438
0	4844	0.29260876774787903
0	5544	0.13336721062660217
0	5630	0.01635291799902916
0	5636	0.001138059189543128
0	5644	0.001513794413767755
0	5664	0.003775722114369273
0	5606	-0.010922924615442753
0	5606	0.0
0	5604	-0.0003753049240913242
0	5598	-0.0011237077414989471
0	5570	-0.0052382140420377254
0	5582	0.0022422641050070524
0	5596	0.0026117453817278147
0	5592	-0.0007449621916748583
0	5618	0.004831635858863592
0	5648	0.0055581629276275635
0	5668	0.0036931256763637066
0	5750	0.01509128324687481
0	5792	0.007701523136347532
0	5794	0.00036541250301524997
0	5780	-0.0025488531682640314
0	5784	0.0007258474361151457
0	5716	-0.012300419621169567
0	5592	-0.022372441366314888
0	5452	-0.02521311119198799
0	5234	-0.0393076092004776
0	5050	-0.03345981985330582
0	4850	-0.03703749552369118
0	4760	-0.016725929453969002
0	4676	-0.015412090346217155
0	4644	-0.005822416394948959
0	4694	0.009108574129641056
0	4706	0.0021973997354507446
0	4774	0.012522558681666851
0	4802	0.005183777306228876
0	4884	0.015260356478393078
0	4962	0.01458652876317501
0	5022	0.011265631765127182
0	5072	0.009422465227544308
0	5140	0.012857520952820778
0	5152	0.0022755428217351437
0	5172	0.003802618943154812
0	5202	0.005718788132071495
0	5208	0.001146628288552165
0	5222	0.002682026708498597
0	5242	0.0038411798886954784
0	5238	-0.0007702379953116179
0	5240	0.0003861848672386259
0	5238	-0.0003874567337334156
0	5232	-0.0011665435740724206
0	5250	0.0035124237183481455
0	5282	0.006265909411013126
0	5326	0.00864394847303629
0	5316	-0.001969563774764538
0	5396	0.015785111114382744
0	5414	0.0035529586020857096
0	5350	-0.012617798522114754
0	5368	0.003541773185133934
0	5300	-0.013334727846086025
0	5156	-0.02813892252743244
0	5108	-0.009350406005978584
0	5152	0.008545459248125553
0	5152	0.0
0	5182	0.005792549345642328
0	5196	0.0026961099356412888
0	5182	-0.0026893082540482283
0	5248	0.012654021382331848
0	5246	-0.0003827555919997394
0	5266	0.0038220942951738834
0	5570	0.058024123311042786
0	6684	0.2120477706193924
0	8062	0.2597745358943939
1	5626	-0.45103317499160767
0	2584	-0.5617659091949463
0	3490	0.17005780339241028
0	4994	0.2853962182998657
0	5570	0.10947240144014359
0	5656	0.01631053350865841
0	5680	0.004539837129414082
0	5664	-0.003018146613612771
0	5656	-0.0015049852663651109
0	5628	-0.005254071671515703
0	5596	-0.005991686601191759
0	5604	0.0014954016078263521
0	5592	-0.0022390843369066715
0	5588	-0.0007454527076333761
0	5586	-0.0003723239351529628
0	5592	0.0011153384111821651
0	5612	0.003712641540914774
0	5622	0.0018527439096942544
0	5652	0.005542281549423933
0	5736	0.01546657457947731
0	5798	0.011375034227967262
0	5834	0.006578866858035326
0	5852	0.003276420757174492
0	5860	0.0014504140708595514
0	5806	-0.009750342927873135
0	5736	-0.012597027234733105
0	5590	-0.0261967983096838
0	5402	-0.03366762027144432
0	5166	-0.04230603948235512
0	4934	-0.04196968302130699
0	4698	-0.04351406916975975
0	4592	-0.01965656690299511
0	4548	-0.008059296756982803
0	4602	0.00982747320085764
0	4620	0.003283632919192314
0	4700	0.014678718522191048
0	4760	0.011073787696659565
0	4824	0.011879277415573597
0	4912	0.016419339925050735
0	4980	0.012746653519570827
0	5018	0.007152088452130556
0	5064	0.00868930108845234
0	5122	0.010993454605340958
0	5138	0.0030417093075811863
0	5128	-0.0019065049709752202
0	5174	0.008795524016022682
0	5182	0.0015337422955781221
0	5204	0.004229413811117411
0	5190	-0.002698673866689205
0	5206	0.0030933814123272896
0	5200	-0.001163993845693767
0	5200	0.0
0	5210	0.001955569488927722
0	5226	0.0031420602463185787
0	5230	0.0007887886604294181
0	5224	-0.001187679823487997
0	5222	-0.00039723527152091265
0	5246	0.0047784652560949326
0	5286	0.007972362451255322
0	5362	0.01513542141765356
0	5328	-0.006751926150172949
0	5328	0.0
0	5460	0.025978457182645798
0	5430	-0.005869080312550068
0	5394	-0.007005072198808193
0	5404	0.001936133485287428
0	5306	-0.018888289108872414
0	5182	-0.023815926164388657
0	5118	-0.012263982556760311
0	5156	0.007272170856595039
0	5134	-0.004205482546240091
0	5198	0.012225094251334667
0	5198	0.0
0	5220	0.004196764901280403
0	5240	0.003813252318650484
0	5282	0.008002134039998055
0	5266	-0.0030463424045592546
0	5274	0.0015223596710711718
0	5550	0.052498094737529755
0	6624	0.2038208395242691
0	8180	0.29266825318336487
1	5858	-0.42873498797416687
0	2372	-0.6410602331161499
0	3678	0.24441976845264435
0	5034	0.2562519907951355
0	5552	0.09801077097654343
0	5660	0.020392492413520813
0	5662	0.0003766005684155971
0	5620	-0.007888015359640121
0	5612	-0.001499344129115343
0	5604	-0.001497006043791771
0	5590	-0.0026152580976486206
0	5564	-0.004848997574299574
0	5572	0.0014910352183505893
0	5566	-0.0011172906961292028
0	5594	0.005208462476730347
0	5574	-0.003715952392667532
0	5586	0.0022258770186454058
0	5638	0.009621432982385159
0	5662	0.00442646536976099
0	5728	0.012135029770433903
0	5758	0.005495914723724127
0	5840	0.014970971271395683
0	5846	0.001091173617169261
0	5834	-0.002174096880480647
0	5804	-0.005415813997387886
0	5724	-0.01439694780856371
0	5626	-0.017587939277291298
0	5386	-0.04298199340701103
0	5110	-0.04947773739695549
0	4880	-0.041607875376939774
0	4706	-0.0321163572371006
0	4546	-0.029743093997240067
0	4510	-0.006603242829442024
0	4500	-0.0018249506829306483
0	4524	0.00439415592700243
0	4620	0.017687592655420303
0	4724	0.01928473450243473
0	4788	0.011936735361814499
0	4794	0.0011248874943703413
0	4888	0.017713790759444237
0	4914	0.004921694286167622
0	4950	0.006843845825642347
0	4970	0.0038169880863279104
0	5002	0.006130659952759743
0	5020	0.003460961626842618
0	5084	0.012351078912615776
0	5132	0.00929260067641735
0	5080	-0.010096564888954163
0	5116	0.007015265058726072
0	5086	-0.0058668614365160465
0	5132	0.009033659473061562
0	5162	0.00591575913131237
0	5152	-0.0019807470962405205
0	5142	-0.0019898649770766497
0	5134	-0.0015992324333637953
0	5152	0.0036144093610346317
0	5174	0.004434589762240648
0	5178	0.0008087452733889222
0	5210	0.006479044444859028
0	5218	0.0016186685534194112
0	5236	0.003633720800280571
0	5248	0.0024138716980814934
0	5222	-0.005205552559345961
0	5248	0.005180934444069862
0	5256	0.0015862524742260575
0	5234	-0.00434119114652276
0	5256	0.0043237293139100075
0	5312	0.010967632755637169
0	5390	0.015224265865981579
0	5320	-0.013610027730464935
0	5356	0.006979900877922773
0	5450	0.018173381686210632
0	5390	-0.0115627720952034
0	5354	-0.0069189961068332195
0	5362	0.0015340952668339014
0	5238	-0.023726606741547585
0	5106	-0.025232572108507156
0	5100	-0.0011471251491457224
0	5114	0.0026762844063341618
0	5112	-0.00038233117084018886
0	5136	0.004587214440107346
0	5134	-0.00038225812022574246
0	5134	0.0
0	5152	0.0034413316752761602
0	5220	0.012999758124351501
0	5254	0.006496318615972996
0	5570	0.060338351875543594
0	6646	0.2049393653869629
0	8084	0.27135831117630005
1	5726	-0.4370659291744232
0	2160	-0.6589061617851257
0	3346	0.22337459027767181
0	5012	0.3175712525844574
0	5562	0.10498052835464478
0	5654	0.017525367438793182
0	5670	0.003040206851437688
0	5656	-0.0026528548914939165
0	5632	-0.004536290653049946
0	5612	-0.0037726357113569975
0	5602	-0.0018836884992197156
0	5578	-0.0045128618367016315
0	5582	0.000751098501496017
0	5570	-0.0022514353040605783
0	5570	0.0
0	5590	0.003743122098967433
0	5598	0.0014951220946386456
0	5636	0.007085938472300768
0	5700	0.01189502701163292
0	5728	0.005184801295399666
0	5820	0.01697145588696003
0	5848	0.005142835900187492
0	5916	0.01243553590029478
0	5928	0.002184094861149788
0	5874	-0.0097813094034791
0	5796	-0.014067234471440315
0	5700	-0.017253775149583817
0	5492	-0.037283558398485184
0	5258	-0.04196355864405632
0	4990	-0.04846293106675148
0	4770	-0.04053904488682747
0	4626	-0.026691380888223648
0	4506	-0.02190900407731533
0	4480	-0.004713674541562796
0	4496	0.002910078503191471
0	4588	0.016841797158122063
0	4644	0.010318649001419544
0	4690	0.00852978602051735
0	4796	0.019773660227656364
0	4854	0.01087608840316534
0	4908	0.010174217633903027
0	4946	0.007190977223217487
0	4998	0.009879670105874538
0	5048	0.009534948505461216
0	5064	0.0030613415874540806
0	5130	0.012668918818235397
0	5130	0.0
0	5154	0.004634397570043802
0	5172	0.003486615139991045
0	5176	0.0007774538244120777
0	5182	0.0011703663039952517
0	5174	-0.0015669887652620673
0	5182	0.0015739150112494826
0	5220	0.007512256968766451
0	5222	0.00039723527152091265
0	5228	0.0011968720937147737
0	5248	0.00400469871237874
0	5262	0.0028117718175053596
0	5268	0.0012069034855812788
0	5266	-0.0004022741923108697
0	5286	0.004015312064439058
0	5296	0.0020007470156997442
0	5294	-0.00039836933137848973
0	5330	0.007133326958864927
0	5338	0.0015763338888064027
0	5332	-0.0011757481843233109
0	5338	0.0011700621107593179
0	5332	-0.0011648072395473719
0	5380	0.009279904887080193
0	5446	0.012712027877569199
0	5438	-0.0015350176254287362
0	5382	-0.010708821937441826
0	5528	0.027842050418257713
0	5540	0.002280703978613019
0	5494	-0.008715532720088959
0	5420	-0.013982666656374931
0	5342	-0.01471161562949419
0	5212	-0.0244867205619812
0	5194	-0.0033892348874360323
0	5182	-0.0022591780871152878
0	5236	0.010165917687118053
0	5242	0.00112916377838701
0	5258	0.003009819658473134
0	5270	0.0022562893573194742
0	5294	0.004511164966970682
0	5302	0.0015030436916276813
0	5348	0.008638497442007065
0	5750	0.07544572651386261
0	7050	0.24323615431785583
0	8191	0.21113990247249603
1	4688	-0.6367354393005371
0	2428	-0.41229087114334106
0	4174	0.32417577505111694
0	5454	0.23931346833705902
0	5690	0.04408935084939003
0	5732	0.00782924797385931
0	5748	0.0029751758556813
0	5740	-0.0014838171191513538
0	5738	-0.00037002089084126055
0	5686	-0.009599350392818451
0	5654	-0.005898581352084875
0	5640	-0.0025772089138627052
0	5620	-0.0036759073846042156
0	5614	-0.0011021509999409318
0	5636	0.00403939001262188
0	5640	0.0007337968563660979
0	5674	0.006228893995285034
0	5696	0.004022305365651846
0	5744	0.008750129491090775
0	5804	0.01090122852474451
0	5854	0.009050264954566956
0	5902	0.008655979298055172
0	5900	-0.0003592405701056123
0	5882	-0.0032207847107201815
0	5804	-0.013905974105000496
0	5722	-0.014574927277863026
0	5574	-0.026240669190883636
0	5340	-0.04143328592181206
0	5094	-0.04366372898221016
0	4824	-0.04848470538854599
0	4642	-0.033354513347148895
0	4546	-0.017598534002900124
0	4514	-0.005791226401925087
0	4536	0.003973318729549646
0	4594	0.010533325374126434
0	4668	0.01352883130311966
0	4748	0.014721216633915901
0	4820	0.01333086472004652
0	4892	0.013406988233327866
0	4962	0.013103379867970943
0	5024	0.011658518575131893
0	5042	0.003398149972781539
0	5076	0.0064429729245603085
0	5132	0.010648547671735287
0	5130	-0.00038147068698890507
0	5152	0.004209720529615879
0	5180	0.005374555476009846
0	5182	0.0003851140500046313
0	5178	-0.0007727776537649333
0	5160	-0.0034902209881693125
0	5178	0.003504809457808733
0	5194	0.0031291150953620672
0	5226	0.006287248805165291
0	5250	0.004736343398690224
0	5252	0.000396343064494431
0	5246	-0.001193380681797862
0	5238	-0.00159621168859303
0	5258	0.003999467007815838
0	5286	0.005602315999567509
0	5264	-0.00439618993550539
0	5334	0.013947001658380032
0	5386	0.010313230566680431
0	5374	-0.0023668326903134584
0	5408	0.006668322719633579
0	5510	0.01989157311618328
0	5514	0.0007754442631267011
0	5440	-0.014267719350755215
0	5448	0.001535626477561891
0	5384	-0.012235846370458603
0	5242	-0.027063429355621338
0	5182	-0.011414946056902409
0	5162	-0.003801173297688365
0	5178	0.003038628725335002
0	5216	0.0072120861150324345
0	5228	0.002276291139423847
0	5234	0.0011374407913535833
0	5284	0.009473764337599277
0	5282	-0.00037870180676691234
0	5284	0.00037846295163035393
0	5624	0.0642957091331482
0	6628	0.18930776417255402
0	8191	0.2920476198196411
1	4922	-0.5996221303939819
0	2710	-0.406495600938797
0	3404	0.12955091893672943
0	4998	0.3010178804397583
0	5606	0.11499688029289246
0	5674	0.012831722386181355
0	5724	0.009410465136170387
0	5714	-0.0018769354792311788
0	5716	0.0003743332054000348
0	5680	-0.006721977610141039
0	5652	-0.005218655336648226
0	5646	-0.0011163551826030016
0	5614	-0.005945119075477123
0	5596	-0.0033419772516936064
0	5606	0.0018557122675701976
0	5614	0.0014830470317974687
0	5574	-0.0074076359160244465
0	5578	0.0007398957968689501
0	5622	0.008122026920318604
0	5666	0.008100097998976707
0	5746	0.014682041481137276
0	5754	0.0014631202211603522
0	5768	0.0025520899798721075
0	5750	-0.003270526882261038
0	5728	-0.003984857816249132
0	5668	-0.010838737711310387
0	5572	-0.017301764339208603
0	5452	-0.02158985286951065
0	5288	-0.029536601155996323
0	5114	-0.0315917544066906
0	4968	-0.027011025696992874
0	4814	-0.02848300151526928
0	4724	-0.016432752832770348
0	4670	-0.009781072847545147
0	4658	-0.002177884802222252
0	4714	0.010222086682915688
0	4762	0.008813268505036831
0	4814	0.00960425566881895
0	4884	0.013000842183828354
0	4932	0.008961020037531853
0	4984	0.009753169491887093
0	5038	0.01017076801508665
0	5094	0.01058787852525711
0	5152	0.011002073995769024
0	5152	0.0
0	5176	0.0045785801485180855
0	5182	0.0011478420346975327
0	5182	0.0
0	5182	0.0
0	5158	-0.004627606365829706
0	5180	0.004255868028849363
0	5182	0.0003883143072016537
0	5182	0.0
0	5226	0.008607422932982445
0	5266	0.007851758971810341
0	5238	-0.0055128964595496655
0	5308	0.013821246102452278
0	5406	0.019383423030376434
0	5392	-0.0027699002530425787
0	5334	-0.011467437259852886
0	5302	-0.006317701656371355
0	5204	-0.019305527210235596
0	5118	-0.01689830981194973
0	5138	0.0039197239093482494
0	5154	0.0031262212432920933
0	5156	0.0003895193513017148
0	5162	0.0011652144603431225
0	5182	0.0038740169256925583
0	5216	0.006570217665284872
0	5228	0.002313951961696148
0	5254	0.005004041828215122
0	5270	0.003074085572734475
0	5532	0.05026346817612648
0	6286	0.14424732327461243
0	7822	0.29174160957336426
1	6266	-0.29062744975090027
0	2688	-0.6637890338897705
0	3136	0.08441469073295593
0	4246	0.21187520027160645
0	5312	0.20469558238983154
0	5568	0.04910925403237343
0	5624	0.010716062970459461
0	5624	0.0
0	5636	0.00228342367336154
0	5594	-0.007971253246068954
0	5574	-0.0037879743613302708
0	5562	-0.0022679734975099564
0	5564	0.00037739172694273293
0	5524	-0.007540341001003981
0	5542	0.003390341065824032
0	5544	0.0003762132837437093
0	5558	0.002629502909258008
0	5602	0.008245876990258694
0	5632	0.005605241749435663
0	5654	0.0040979026816785336
0	5698	0.008170440793037415
0	5732	0.006292412057518959
0	5732	0.0
0	5664	-0.012498469091951847
0	5646	-0.003299362026154995
0	5562	-0.015357800759375095
0	5472	-0.01642395742237568
0	5296	-0.03207854554057121
0	5140	-0.028474081307649612
0	4914	-0.04154055193066597
0	4792	-0.02283133566379547
0	4736	-0.010577213950455189
0	4678	-0.01081551518291235
0	4680	0.00036940808058716357
0	4708	0.005157931242138147
0	4740	0.005916722118854523
0	4822	0.015239370055496693
0	4870	0.008965147659182549
0	4936	0.012385218404233456
0	4978	0.0079161636531353
0	5038	0.011352742090821266
0	5074	0.006834750529378653
0	5108	0.006475039757788181
0	5158	0.0095497602596879
0	5158	0.0
0	5154	-0.0007676462410017848
0	5154	0.0
0	5162	0.0015431304927915335
0	5160	-0.00038687713094986975
0	5158	-0.000388058164389804
0	5152	-0.0011679211165755987
0	5156	0.0007813822594471276
0	5226	0.01372567005455494
0	5236	0.001967316260561347
0	5242	0.0011837121564894915
0	5274	0.006329948548227549
0	5364	0.017836851999163628
0	5328	-0.00713983504101634
0	5296	-0.006345177534967661
0	5270	-0.005150146782398224
0	5154	-0.02292369306087494
0	5078	-0.014983242377638817
0	5096	0.00354070495814085
0	5104	0.0015693454770371318
0	5138	0.006651277653872967
0	5160	0.004291733726859093
0	5160	0.0
0	5206	0.008929611183702946
0	5236	0.005811025388538837
0	5234	-0.00038665274041704834
0	5462	0.04400581493973732
0	6248	0.15129156410694122
0	7778	0.2922971248626709
1	6336	-0.27087950706481934
0	2548	-0.7063649892807007
0	3114	0.1072850227355957
0	4254	0.21890802681446075
0	5386	0.218631312251091
0	5586	0.03857181593775749
0	5620	0.006539299618452787
0	5628	0.0015341148246079683
0	5636	0.0015294612385332584
0	5612	-0.004574391059577465
0	5584	-0.005323733668774366
0	5572	-0.0022765789180994034
0	5572	0.0
0	5562	-0.0018896447727456689
0	5584	0.004152039997279644
0	5606	0.0041453642770648
0	5584	-0.004137308336794376
0	5602	0.0033784208353608847
0	5608	0.0011229926021769643
0	5646	0.007088846992701292
0	5714	0.012642067857086658
0	5760	0.008519780822098255
0	5794	0.006273140199482441
0	5760	-0.0062487744726240635
0	5736	-0.0043947454541921616
0	5672	-0.011681532487273216
0	5582	-0.016383694484829903
0	5452	-0.02361546829342842
0	5250	-0.03669702634215355
0	4998	-0.04605880379676819
0	4840	-0.029375674203038216
0	4714	-0.023645393550395966
0	4676	-0.007035821210592985
0	4664	-0.002200623508542776
0	4684	0.0036585365887731314
0	4736	0.009553086943924427
0	4806	0.012927214615046978
0	4870	0.011878689751029015
0	4916	0.008578035049140453
0	5002	0.016109293326735497
0	5028	0.004888872150331736
0	5072	0.008302409201860428
0	5130	0.010978610254824162
0	5156	0.0049352096393704414
0	5154	-0.00038060921360738575
0	5174	0.003816502634435892
0	5182	0.0015308074653148651
0	5182	0.0
0	5202	0.0038471894804388285
0	5182	-0.003857230767607689
0	5194	0.0023212626110762358
0	5182	-0.00232907198369503
0	5182	0.0
0	5256	0.014474044553935528
0	5264	0.0015699203358963132
0	5308	0.008661303669214249
0	5294	-0.0027624673675745726
0	5390	0.018978582695126534
0	5436	0.009097621776163578
0	5392	-0.008691415190696716
0	5380	-0.0023642524611204863
0	5318	-0.012172137387096882
0	5182	-0.02659505046904087
0	5118	-0.012474174611270428
0	5124	0.001166014582850039
0	5152	0.005425936076790094
0	5162	0.0019326410256326199
0	5174	0.002313862554728985
0	5198	0.004618700593709946
0	5224	0.004994557239115238
0	5262	0.007289375178515911
0	5298	0.006895406637340784
0	5406	0.020656416192650795
0	6014	0.11608370393514633
0	7682	0.3167369067668915
0	6946	-0.13755808770656586
1	3932	-0.5571645498275757
0	2914	-0.18964703381061554
0	4126	0.22901341319084167
0	5312	0.22562971711158752
0	5602	0.055125392973423004
0	5670	0.012892624363303185
0	5702	0.00604846328496933
0	5670	-0.006028711795806885
0	5670	0.0
0	5626	-0.008247010409832
0	5626	0.0
0	5610	-0.002986783627420664
0	5598	-0.0022370251826941967
0	5610	0.002234775573015213
0	5616	0.0011158777633681893
0	5602	-0.002599911065772176
0	5638	0.0066737523302435875
0	5652	0.0025880553293973207
0	5710	0.010686779394745827
0	5760	0.009179702028632164
0	5796	0.006584883667528629
0	5834	0.0069239456206560135
0	5864	0.0054444484412670135
0	5802	-0.011206709779798985
0	5756	-0.008285799995064735
0	5616	-0.025143075734376907
0	5420	-0.035133421421051025
0	5210	-0.0376398041844368
0	4968	-0.043584756553173065
0	4770	-0.036250900477170944
0	4648	-0.022637028247117996
0	4584	-0.011822805739939213
0	4558	-0.004754126537591219
0	4618	0.01094224862754345
0	4670	0.009523460641503334
0	4736	0.012156636454164982
0	4830	0.017413856461644173
0	4888	0.010802891105413437
0	4940	0.009732603095471859
0	4992	0.009777131490409374
0	5026	0.006418243050575256
0	5088	0.011748209595680237
0	5132	0.008365019224584103
0	5152	0.0038135431241244078
0	5156	0.0007649353356100619
0	5212	0.01074058935046196
0	5202	-0.0019227564334869385
0	5170	-0.006170062348246574
0	5182	0.0023209634236991405
0	5204	0.004269633907824755
0	5200	-0.0007790993549861014
0	5182	-0.0035195662640035152
0	5240	0.011389223858714104
0	5218	-0.004337767604738474
0	5236	0.0035627572797238827
0	5304	0.013505641371011734
0	5346	0.008358985185623169
0	5312	-0.006770120933651924
0	5344	0.006367567460983992
0	5456	0.022231044247746468
0	5440	-0.003161513712257147
0	5384	-0.011007876135408878
0	5382	-0.00039108842611312866
0	5270	-0.021783949807286263
0	5152	-0.022854339331388474
0	5130	-0.004247759934514761
0	5152	0.004237016197293997
0	5182	0.0057658301666378975
0	5216	0.006522323004901409
0	5230	0.0026809307746589184
0	5248	0.0034416825510561466
0	5258	0.0019093443406745791
0	5274	0.0030516490805894136
0	5328	0.010290026664733887
0	5666	0.06433602422475815
0	6880	0.2303314059972763
0	8160	0.2403184175491333
1	5796	-0.43577107787132263
0	2370	-0.6291163563728333
0	3320	0.17750373482704163
0	4792	0.278302937746048
0	5472	0.12889528274536133
0	5646	0.03292170912027359
0	5680	0.006416547577828169
0	5660	-0.0037635015323758125
0	5674	0.0026274630799889565
0	5644	-0.0056172762997448444
0	5608	-0.006728217471390963
0	5590	-0.0033579166047275066
0	5614	0.004470383748412132
0	5582	-0.005954670254141092
0	5578	-0.0007436787709593773
0	5580	0.000371392845408991
0	5600	0.0037093821447342634
0	5620	0.003701829817146063
0	5626	0.0011073515051975846
0	5668	0.007727880496531725
0	5752	0.015407000668346882
0	5774	0.004021153319627047
0	5828	0.009836663492023945
0	5876	0.00871206633746624
