0	5514	0.007252507843077183
0	5528	0.0025384086184203625
0	5460	-0.01232866756618023
0	5500	0.0072533851489424706
0	5490	-0.0018133023986592889
0	5532	0.00761789595708251
0	5546	0.0025396673008799553
0	5490	-0.010159405879676342
0	5562	0.013068415224552155
0	5488	-0.013432402163743973
0	5470	-0.0032676178961992264
0	5576	0.019245199859142303
0	5490	-0.015604776330292225
0	5514	0.004355769604444504
0	5494	-0.003629193175584078
0	5554	0.010891005396842957
0	5500	-0.009798584505915642
0	5522	0.003993078600615263
0	5518	-0.0007258825935423374
0	5542	0.004356612917035818
0	5550	0.0014519055839627981
0	5542	-0.001451045391149819
0	5604	0.011244785971939564
0	5658	0.00978828314691782
0	5642	-0.0028982707299292088
0	5654	0.0021715527400374413
0	5580	-0.013377201743423939
0	5542	-0.006867304444313049
0	5460	-0.014815350994467735
0	5430	-0.005421817302703857
0	5458	0.00506170466542244
0	5384	-0.013381877914071083
0	5468	0.015203435905277729
0	5414	-0.009773165918886662
0	5640	0.04092374071478844
0	5740	0.018091470003128052
0	6076	0.06071119010448456
0	6574	0.08969632536172867
0	5754	-0.14673776924610138
0	5388	-0.0654202252626419
0	5084	-0.05437050759792328
0	5278	0.034776996821165085
0	5414	0.02442323975265026
0	5294	-0.02155972644686699
0	5390	0.017270535230636597
0	5370	-0.003600273746997118
0	5360	-0.0018021265277639031
0	5420	0.010821860283613205
0	5452	0.005775200668722391
0	5474	0.003972027450799942
0	5470	-0.0007224824512377381
0	5498	0.0050598145462572575
0	5482	-0.002892088843509555
0	5510	0.005064878612756729
0	5590	0.01448400691151619
0	5540	-0.009055346250534058
0	5602	0.011236363090574741
0	5596	-0.0010872454149648547
0	5680	0.015216471627354622
0	5630	-0.009045408107340336
0	5684	0.009757272899150848
0	5646	-0.006856895517557859
0	5716	0.012611249461770058
0	5758	0.007555496878921986
0	5664	-0.016875112429261208
0	5624	-0.007179867476224899
0	5534	-0.016165923327207565
0	5348	-0.03351834416389465
0	5322	-0.004720120690762997
0	5190	-0.024026503786444664
0	5152	-0.006925039459019899
0	5162	0.0018216263270005584
0	5136	-0.004739566706120968
0	5240	0.018990345299243927
0	5264	0.004383828490972519
0	5294	0.005483992863446474
0	5284	-0.0018288446590304375
0	5320	0.006586892064660788
0	5326	0.0010984853142872453
0	5412	0.01575707271695137
0	5410	-0.00036658236058428884
0	5362	-0.008801203221082687
0	5490	0.023489398881793022
0	5424	-0.012111129239201546
0	5506	0.015055079944431782
0	5470	-0.00661294674500823
0	5484	0.0025728042237460613
0	5502	0.0033102838788181543
0	5508	0.0011040641693398356
0	5514	0.0011052301852032542
0	5524	0.0018433632794767618
0	5544	0.003690354758873582
0	5544	0.0
0	5552	0.0014786337269470096
0	5518	-0.006292179226875305
0	5528	0.0018523092148825526
0	5510	-0.003336133901029825
0	5496	-0.002595155732706189
0	5480	-0.0029631825163960457
0	5476	-0.0007400737376883626
0	5554	0.01440602820366621
0	5466	-0.01621283032000065
0	5488	0.004045654553920031
0	5544	0.010275858454406261
0	5478	-0.012088355608284473
0	5572	0.01719428412616253
0	5516	-0.010226069018244743
0	5562	0.008388140238821507
0	5510	-0.009468317963182926
0	5530	0.003637598128989339
0	5544	0.0025444983039051294
0	5512	-0.005811278708279133
0	5514	0.0003628754348028451
0	5508	-0.0010884682415053248
0	5556	0.008703325875103474
0	5530	-0.004712877329438925
0	5510	-0.0036239763721823692
0	5532	0.0039857481606304646
0	5492	-0.007245501969009638
0	5530	0.006883891765028238
0	5474	-0.01014370284974575
0	5482	0.001449537929147482
0	5524	0.007612925488501787
0	5518	-0.0010876922169700265
0	5494	-0.004351662937551737
0	5486	-0.0014507645973935723
0	5500	0.002539483131840825
0	5470	-0.005442078225314617
0	5552	0.014877351932227612
0	5598	0.0083421990275383
0	5592	-0.0010873110732063651
0	5626	0.006160015240311623
0	5566	-0.010860121808946133
0	5614	0.008684011176228523
0	5594	-0.0036168110091239214
0	5498	-0.01734856143593788
0	5394	-0.01880265586078167
0	5340	-0.009770100936293602
0	5388	0.0086961779743433
0	5382	-0.001087823649868369
0	5442	0.010887974873185158
0	5444	0.0003631565487012267
0	5694	0.04541325941681862
0	5824	0.023589184507727623
0	6206	0.06918368488550186
0	6846	0.11545677483081818
1	5982	-0.15464286506175995
0	4850	-0.2020418494939804
0	5238	0.06953321397304535
0	5270	0.005743412766605616
0	5302	0.005752360913902521
0	5316	0.002519254107028246
0	5342	0.004683278501033783
0	5346	0.000721292570233345
0	5380	0.006137331947684288
0	5426	0.008309148252010345
0	5460	0.0061437636613845825
0	5456	-0.0007229699403978884
0	5462	0.001084546442143619
0	5488	0.004702250938862562
0	5570	0.014840017072856426
0	5564	-0.0010859990725293756
0	5602	0.006880567874759436
0	5570	-0.0057929037138819695
0	5634	0.011588884517550468
0	5712	0.014120543375611305
0	5704	-0.001446393085643649
0	5758	0.009744946844875813
0	5758	0.0
0	5824	0.01185429934412241
0	5808	-0.0028661848045885563
0	5820	0.0021449511405080557
0	5746	-0.013197630643844604
0	5658	-0.015689631924033165
0	5586	-0.012849647551774979
0	5346	-0.04299072176218033
0	5252	-0.01699020341038704
0	5164	-0.015975987538695335
0	5066	-0.01775769703090191
0	5060	-0.0010883366921916604
0	5076	0.002905920846387744
0	5164	0.01600446179509163
0	5214	0.00910183135420084
0	5208	-0.0010930687421932817
0	5216	0.0014586474280804396
0	5298	0.014966052025556564
0	5320	0.004018411971628666
0	5334	0.0025593526661396027
0	5406	0.013172176666557789
0	5406	0.0
0	5452	0.00842264574021101
0	5436	-0.002931727562099695
0	5524	0.01613711751997471
0	5528	0.0007338551804423332
0	5546	0.003303196746855974
0	5544	-0.0003672195307444781
0	5494	-0.009189937263727188
0	5534	0.00736142136156559
0	5474	-0.011057326570153236
0	5522	0.008861321024596691
0	5546	0.004438909236341715
0	5524	-0.004075583536177874
0	5526	0.0003711860626935959
0	5530	0.0007433838909491897
0	5570	0.007439738139510155
0	5518	-0.0096726194024086
0	5544	0.00483115715906024
0	5522	-0.0040805223397910595
0	5538	0.0029610986821353436
0	5556	0.0033215642906725407
0	5492	-0.011774085462093353
0	5534	0.007707082200795412
0	5534	0.0
0	5500	-0.006212844979017973
0	5558	0.010579565539956093
0	5504	-0.009829500690102577
0	5568	0.011635235510766506
0	5498	-0.012706941924989223
0	5472	-0.0047150421887636185
0	5462	-0.0018127545481547713
0	5594	0.023920265957713127
0	5460	-0.02426188252866268
0	5532	0.01303434744477272
0	5542	0.0018102386966347694
0	5546	0.0007240343256853521
0	5494	-0.009412446059286594
0	5470	-0.004345517139881849
0	5542	0.01303843967616558
0	5472	-0.012675648555159569
0	5516	0.007967646233737469
0	5514	-0.00036217886372469366
0	5530	0.002897990634664893
0	5538	0.0014489429304376245
0	5488	-0.009055237285792828
0	5558	0.012680547311902046
0	5574	0.0028986206743866205
0	5586	0.002173230517655611
0	5550	-0.006518039386719465
0	5620	0.012671823613345623
0	5632	0.0021712384186685085
0	5606	-0.004702194128185511
0	5684	0.014096895232796669
0	5608	-0.013723035342991352
0	5432	-0.03176551312208176
0	5358	-0.013361419551074505
0	5382	0.004338656552135944
0	5442	0.010854620486497879
0	5432	-0.001810479094274342
0	5460	0.00507136108353734
0	5752	0.05289088562130928
0	6004	0.04556577280163765
0	6516	0.09234987199306488
0	7134	0.11076591908931732
1	5824	-0.2325691431760788
0	4962	-0.15277908742427826
0	5202	0.04268437251448631
0	5228	0.004632159136235714
0	5236	0.0014273310080170631
0	5186	-0.008937083184719086
0	5252	0.011817085556685925
0	5308	0.010042441077530384
0	5300	-0.0014364032540470362
0	5332	0.005753533449023962
0	5396	0.011521290987730026
0	5400	0.0007204784196801484
0	5448	0.008653949946165085
0	5468	0.0036085450556129217
0	5532	0.011555545032024384
0	5516	-0.0028891991823911667
0	5552	0.006504770368337631
0	5586	0.006146355532109737
0	5642	0.010124629363417625
0	5620	-0.003978540189564228
0	5708	0.01591300778090954
0	5762	0.009748582728207111
0	5742	-0.003601829754188657
0	5912	0.030549531802535057
0	5862	-0.008959931321442127
0	5906	0.007864539511501789
0	5848	-0.01033941749483347
0	5742	-0.018885405734181404
0	5636	-0.018914835527539253
0	5418	-0.03910500928759575
0	5268	-0.027186062186956406
0	5092	-0.03200582042336464
0	5034	-0.010539066977798939
0	5050	0.002910290379077196
0	4992	-0.01056120079010725
0	5070	0.014224059879779816
0	5128	0.010584328323602676
0	5154	0.004748280625790358
0	5222	0.01243023294955492
0	5202	-0.003657689318060875
0	5274	0.013178124092519283
0	5344	0.012821609154343605
0	5362	0.003298112889751792
0	5356	-0.0010999486548826098
0	5452	0.01761123165488243
0	5506	0.00991116650402546
0	5520	0.0025697187520563602
0	5538	0.0033045713789761066
0	5478	-0.011018474586308002
0	5566	0.01617666892707348
0	5486	-0.014710930176079273
0	5506	0.0036827437579631805
0	5602	0.01770498976111412
0	5484	-0.021781131625175476
0	5616	0.024429665878415108
0	5526	-0.016681905835866928
0	5542	0.0029726517386734486
0	5582	0.0074457391165196896
0	5574	-0.0014906276483088732
0	5536	-0.007083209231495857
0	5574	0.0070780194364488125
0	5594	0.0037182094529271126
0	5584	-0.0018533391412347555
0	5554	-0.005541189573705196
0	5588	0.0062605878338217735
0	5616	0.0051369862630963326
0	5568	-0.008776955306529999
0	5572	0.0007294567185454071
0	5536	-0.006548470817506313
0	5558	0.0039942385628819466
0	5480	-0.014130947180092335
0	5522	0.0075995177030563354
0	5490	-0.005783898755908012
0	5486	-0.0007224302389658988
0	5512	0.004692124202847481
0	5530	0.0032472216989845037
0	5528	-0.0003607503604143858
0	5462	-0.011904189363121986
0	5518	0.010105141438543797
0	5516	-0.000360811100108549
0	5510	-0.0010827588848769665
0	5550	0.0072173504158854485
0	5476	-0.013348566368222237
0	5546	0.012636595405638218
0	5524	-0.003970020450651646
0	5572	0.008666658774018288
0	5620	0.008664259687066078
0	5590	-0.005412622354924679
0	5656	0.011907195672392845
0	5652	-0.000721292570233345
0	5686	0.006126714870333672
0	5666	-0.003601526841521263
0	5480	-0.033479731529951096
0	5386	-0.01693042926490307
0	5396	0.0018029280472546816
0	5412	0.002888017101213336
0	5430	0.003253011964261532
0	5450	0.003617465030401945
0	5696	0.0445275753736496
0	5946	0.045207954943180084
0	6546	0.10824593901634216
0	7166	0.11114165186882019
1	6174	-0.17609676718711853
0	4988	-0.20968633890151978
0	5118	0.023051824420690536
0	5258	0.02488299086689949
0	5246	-0.002136270282790065
0	5250	0.0007132837199606001
0	5270	0.003570918459445238
0	5274	0.0007152393809519708
0	5374	0.017906812950968742
0	5382	0.0014337089378386736
0	5368	-0.002511511091142893
0	5446	0.014001746661961079
0	5450	0.0007184682181105018
0	5480	0.005390900187194347
0	5494	0.002517140470445156
0	5550	0.010076171718537807
0	5556	0.0010798487346619368
0	5596	0.007203313522040844
0	5608	0.0021617207676172256
0	5660	0.009371845982968807
0	5712	0.009372183121740818
0	5826	0.020518111065030098
0	5842	0.0028721531853079796
0	5882	0.007161271758377552
0	5834	-0.008569490164518356
0	5840	0.001068617100827396
0	5770	-0.012438399717211723
0	5668	-0.018116584047675133
0	5508	-0.02846502512693405
0	5286	-0.03973983973264694
0	5160	-0.022810935974121094
0	5038	-0.022222761064767838
0	5012	-0.004734561312943697
0	4978	-0.006195335183292627
0	5032	0.00985641311854124
0	5056	0.004386338870972395
0	5088	0.005855372175574303
0	5156	0.012456493452191353
0	5212	0.010265685617923737
0	5286	0.013578812591731548
0	5342	0.010281895287334919
0	5390	0.008814455941319466
0	5448	0.010654452256858349
0	5420	-0.00514359213411808
0	5466	0.008453292772173882
0	5498	0.005881560035049915
0	5496	-0.00036771464510820806
0	5524	0.005149899050593376
0	5544	0.0036801234818995
0	5542	-0.00036815687781199813
0	5518	-0.004421083722263575
0	5588	0.012910205870866776
0	5532	-0.010343299247324467
0	5518	-0.002590769436210394
0	5514	-0.000741885625757277
0	5562	0.008920274674892426
0	5580	0.0033508737105876207
0	5538	-0.007827934809029102
0	5530	-0.0014922402333468199
0	5568	0.007087172474712133
0	5562	-0.0011170688085258007
0	5548	-0.0026000074576586485
0	5522	-0.004813388455659151
0	5604	0.015133059583604336
0	5508	-0.017648788169026375
0	5600	0.0168642308562994
0	5474	-0.023020144551992416
0	5564	0.016404397785663605
0	5526	-0.006909174844622612
0	5528	0.0003629500570241362
0	5534	0.0010872585698962212
0	5518	-0.0028959973715245724
0	5472	-0.008319567888975143
0	5486	0.002531676087528467
0	5506	0.003615241963416338
0	5542	0.006505867000669241
0	5482	-0.010840239003300667
0	5514	0.00578194810077548
0	5482	-0.0057822964154183865
0	5564	0.014822669327259064
0	5596	0.0057836901396512985
0	5530	-0.011923258192837238
0	5646	0.02096335031092167
0	5600	-0.008307348005473614
0	5620	0.003610108280554414
0	5600	-0.0036078074481338263
0	5512	-0.015870725736021996
0	5404	-0.019485674798488617
0	5346	-0.010472968220710754
0	5416	0.012653804384171963
0	5432	0.0028949494007974863
0	5442	0.0018107632640749216
0	5508	0.011958688497543335
0	5804	0.053637441247701645
0	6046	0.04379931837320328
0	6734	0.12411753088235855
0	6644	-0.01612633466720581
1	5620	-0.1822085678577423
0	4968	-0.11597709357738495
0	5216	0.0442604199051857
0	5288	0.012873695231974125
0	5268	-0.0035812770947813988
0	5286	0.0032279661390930414
0	5298	0.0021543726325035095
0	5354	0.010065063834190369
0	5342	-0.0021587652154266834
0	5352	0.001801131060346961
0	5422	0.012617765925824642
0	5474	0.009378382004797459
0	5478	0.000721448683179915
0	5466	-0.0021654656156897545
0	5512	0.008307447656989098
0	5558	0.00830834824591875
0	5600	0.0075899045914411545
0	5582	-0.003252816153690219
0	5696	0.020605886355042458
0	5628	-0.01228412427008152
0	5734	0.01913541555404663
0	5766	0.005765280686318874
0	5764	-0.00035942348768003285
0	5846	0.014705706387758255
0	5832	-0.002504531992599368
0	5848	0.0028556811157613993
0	5784	-0.011399664916098118
0	5664	-0.02137691155076027
0	5510	-0.02749607339501381
0	5248	-0.047122303396463394
0	5132	-0.021039394661784172
0	5072	-0.01091464702039957
0	5062	-0.0018179614562541246
0	5066	0.00072786386590451
0	5108	0.007652875501662493
0	5188	0.014591085724532604
0	5172	-0.002919956808909774
0	5180	0.0014610982034355402
0	5260	0.014626476913690567
0	5300	0.007316894829273224
0	5378	0.014272469095885754
0	5324	-0.009883592836558819
0	5396	0.013190194964408875
0	5448	0.009531024843454361
0	5454	0.0010998545913025737
0	5450	-0.0007334963302128017
0	5478	0.005137865897268057
0	5506	0.005141702946275473
0	5470	-0.00661383755505085
0	5510	0.007358893286436796
0	5474	-0.006627799943089485
0	5502	0.005163193680346012
0	5488	-0.002585792914032936
0	5478	-0.0018501387676224113
0	5506	0.00519217224791646
0	5526	0.0037161826621741056
0	5556	0.005585413426160812
0	5518	-0.007084881886839867
0	5528	0.0018661358626559377
0	5548	0.0037318537943065166
0	5514	-0.006332335993647575
0	5538	0.004459308926016092
0	5512	-0.004817015491425991
0	5504	-0.001478050951845944
0	5538	0.00626481743529439
0	5554	0.0029403837397694588
0	5498	-0.010268321260809898
0	5582	0.015371852554380894
0	5570	-0.0021906073670834303
0	5552	-0.003279724158346653
0	5570	0.003274712013080716
0	5500	-0.012720179744064808
0	5512	0.002178280148655176
0	5540	0.005079088732600212
0	5542	0.00036259033367969096
0	5530	-0.0021743858233094215
0	5532	0.00036222257767803967
0	5572	0.007242091000080109
0	5592	0.003619603579863906
0	5628	0.006510495208203793
0	5600	-0.005060119088739157
0	5654	0.009751399978995323
0	5590	-0.011546649970114231
0	5672	0.014785075560212135
0	5482	-0.0342182032763958
0	5418	-0.011527793481945992
0	5430	0.002162863500416279
0	5392	-0.006854257080703974
0	5424	0.005776382051408291
0	5450	0.004696249030530453
0	5468	0.003253168659284711
0	5818	0.0632735937833786
0	5912	0.016964854672551155
0	6602	0.12423031032085419
0	6602	0.0
1	5694	-0.16138587892055511
0	5022	-0.11934079229831696
0	5174	0.027070024982094765
0	5346	0.030706243589520454
0	5250	-0.01716124452650547
0	5290	0.007163409609347582
0	5340	0.008969252929091454
0	5390	0.008977842517197132
0	5428	0.006828146055340767
0	5382	-0.008271199651062489
0	5426	0.00791917648166418
0	5470	0.007924120873212814
0	5452	-0.0032428926788270473
0	5444	-0.0014423249522224069
0	5484	0.007218045182526112
0	5524	0.007224302738904953
0	5576	0.009395891800522804
0	5614	0.006869456265121698
0	5774	0.028919843956828117
0	5552	-0.04010163992643356
0	5680	0.023111924529075623
0	5728	0.008653325960040092
0	5760	0.005758571904152632
0	5816	0.010055303573608398
0	5770	-0.008240380324423313
0	5730	-0.007151882629841566
0	5666	-0.011425171047449112
0	5572	-0.016795910894870758
0	5452	-0.0214850977063179
0	5218	-0.042185474187135696
0	5130	-0.01599767431616783
0	4942	-0.03429405391216278
0	4882	-0.010950236581265926
0	5002	0.02193944714963436
0	4968	-0.006229235790669918
0	4984	0.0029364621732383966
0	5074	0.016548579558730125
0	5070	-0.0007366935024037957
0	5072	0.000369071785826236
0	5170	0.018124205991625786
0	5348	0.032962553203105927
0	5450	0.018897753208875656
0	5460	0.001852949964813888
0	5500	0.007411432918161154
0	5532	0.005927097052335739
0	5546	0.002592336619272828
0	5636	0.016662757843732834
0	5584	-0.009623807854950428
0	5604	0.0037021497264504433
0	5632	0.0051884520798921585
0	5576	-0.010371779091656208
0	5656	0.01482634712010622
0	5548	-0.02002447471022606
0	5570	0.004084411077201366
0	5464	-0.01970943994820118
0	5508	0.008196823298931122
0	5470	-0.007088846992701292
0	5478	0.0014942099805921316
0	5488	0.0018688561394810677
0	5456	-0.005978998728096485
0	5482	0.0048507461324334145
0	5424	-0.010797259397804737
0	5508	0.015590779483318329
0	5440	-0.012572415173053741
0	5412	-0.005162939894944429
0	5414	0.00036777774221263826
0	5378	-0.006602596957236528
0	5438	0.010983915068209171
0	5460	0.004018411971628666
0	5464	0.0007288983906619251
0	5462	-0.00036379953962750733
0	5460	-0.00036354822805151343
0	5416	-0.007997577078640461
0	5440	0.004363477695733309
0	5504	0.011640172451734543
0	5548	0.008003978058695793
0	5572	0.004365752916783094
0	5542	-0.005459309555590153
0	5494	-0.00873712170869112
0	5502	0.0014571595238521695
0	5496	-0.0010937328916043043
0	5446	-0.009118873625993729
0	5372	-0.013513184152543545
0	5272	-0.018280643969774246
0	5362	0.016482509672641754
0	5336	-0.004764581099152565
0	5366	0.005503375083208084
0	5374	0.0014685005880892277
0	5566	0.0352664589881897
0	5776	0.03855427727103233
0	5996	0.04031125083565712
0	6654	0.12018997222185135
0	5992	-0.1200217604637146
0	5270	-0.1305180937051773
0	4924	-0.06261159479618073
0	5238	0.056988675147295
0	5398	0.029069768264889717
0	5346	-0.009446530602872372
0	5348	0.00036353059113025665
0	5350	0.00036377744982019067
0	5416	0.012012958526611328
0	5434	0.0032771762926131487
0	5448	0.0025493171997368336
0	5470	0.00400529196485877
0	5520	0.009101279079914093
0	5514	-0.001092047430574894
0	5570	0.010194545611739159
0	5596	0.00473323930054903
0	5556	-0.007279521320015192
0	5596	0.007276785094290972
0	5588	-0.001454527722671628
0	5620	0.0058148689568042755
0	5644	0.004356560297310352
0	5602	-0.007611453533172607
0	5806	0.03689636290073395
0	5912	0.019120460376143456
0	5830	-0.014740248210728168
0	5808	-0.003943735733628273
0	5734	-0.01323098223656416
0	5838	0.01857629418373108
0	5616	-0.03963860869407654
0	5496	-0.021474845707416534
0	5352	-0.025949062779545784
0	5204	-0.026772793382406235
0	5152	-0.009410402737557888
0	5102	-0.00903603620827198
0	5128	0.004702591337263584
0	5062	-0.011956810019910336
0	5172	0.019962253049016
0	5226	0.009810096584260464
0	5288	0.011271907947957516
0	5330	0.007641735952347517
0	5394	0.011651899665594101
0	5346	-0.008741789497435093
0	5450	0.018954811617732048
0	5466	0.00291736563667655
0	5488	0.004012548364698887
0	5430	-0.01058381237089634
0	5494	0.011690494604408741
0	5550	0.010233045555651188
0	5566	0.002924546832218766
0	5486	-0.014624693430960178
0	5494	0.0014636644627898932
0	5590	0.017580056563019753
0	5550	-0.007325559854507446
0	5520	-0.005502769723534584
0	5506	-0.002574128797277808
0	5540	0.006263894494622946
0	5522	-0.003321646014228463
0	5662	0.02586876042187214
0	5574	-0.016278007999062538
0	5594	0.003700505942106247
0	5618	0.004437924828380346
0	5634	0.002953773597255349
0	5586	-0.008837934583425522
0	5566	-0.003672689897939563
0	5528	-0.006958347279578447
0	5532	0.0007306736661121249
0	5554	0.004007237032055855
0	5636	0.01490150485187769
0	5540	-0.017402444034814835
0	5540	0.0
0	5506	-0.0061462074518203735
0	5500	-0.00108389335218817
0	5668	0.030320895835757256
0	5534	-0.024152847006917
0	5604	0.01261200662702322
0	5578	-0.004681198392063379
0	5638	0.010793178342282772
0	5616	-0.0039540845900774
0	5692	0.013654165901243687
0	5672	-0.003590492531657219
0	5628	-0.007890300825238228
0	5576	-0.009317438118159771
0	5498	-0.013977325521409512
0	5500	0.00035850430140271783
0	5384	-0.020795734599232674
0	5454	0.012558306567370892
0	5432	-0.003948927391320467
0	5442	0.001795934047549963
0	5730	0.05179111286997795
0	5892	0.029105281457304955
0	6174	0.050574496388435364
0	6674	0.08937402069568634
1	5770	-0.16059310734272003
0	5036	-0.13025115430355072
0	5398	0.06444033235311508
0	5446	0.008551170118153095
0	5482	0.00641665467992425
0	5446	-0.006419400684535503
0	5442	-0.0007140731904655695
0	5440	-0.00035724492045119405
0	5434	-0.001072373241186142
0	5398	-0.006437000818550587
0	5454	0.010019203647971153
0	5492	0.006807433441281319
0	5416	-0.013618282042443752
0	5486	0.01255725510418415
0	5494	0.001435904880054295
0	5430	-0.011497143656015396
0	5480	0.008992158807814121
0	5554	0.01332532986998558
0	5602	0.008649583905935287
0	5668	0.01189503539353609
0	5698	0.005403847433626652
0	5610	-0.01583227328956127
0	5702	0.0165410116314888
0	5730	0.005024645011872053
0	5752	0.003941427916288376
0	5866	0.020384809002280235
0	5652	-0.03816975653171539
0	5612	-0.007137843873351812
0	5468	-0.02573910541832447
0	5292	-0.03159179538488388
0	5278	-0.0025339366402477026
0	5168	-0.019968776032328606
0	5114	-0.009795029647648335
0	5102	-0.0021804175339639187
0	5096	-0.0010924849193543196
0	5174	0.014235653914511204
0	5254	0.014624872244894505
0	5210	-0.008052905090153217
0	5258	0.008797330781817436
0	5318	0.011008501052856445
0	5380	0.011381019838154316
0	5326	-0.009916990995407104
0	5346	0.0036766959819942713
0	5430	0.01544874906539917
0	5424	-0.0011038610246032476
0	5454	0.005521675571799278
0	5462	0.0014722300693392754
0	5464	0.00036809814628213644
0	5506	0.007734331768006086
0	5464	-0.007738892454653978
0	5492	0.005165733862668276
0	5492	0.0
0	5538	0.00850350596010685
0	5516	-0.004071007948368788
0	5506	-0.00185290421359241
0	5552	0.008536328561604023
0	5530	-0.004090537317097187
0	5544	0.002605038695037365
0	5518	-0.004839970730245113
0	5516	-0.00037218997022137046
0	5552	0.006690123118460178
0	5570	0.0033393935300409794
0	5562	-0.0014804945094510913
0	5506	-0.010334900580346584
0	5490	-0.002945508109405637
0	5580	0.016528520733118057
0	5570	-0.0018319492228329182
0	5536	-0.006216631270945072
0	5540	0.0007299180724658072
0	5514	-0.004736343398690224
0	5558	0.008005822077393532
0	5550	-0.0014540343545377254
0	5538	-0.0021780957467854023
0	5548	0.0018129737582057714
0	5568	0.0036233633290976286
0	5650	0.014842882752418518
0	5620	-0.0054239085875451565
0	5566	-0.009753747843205929
0	5614	0.008664676919579506
0	5518	-0.01731809973716736
0	5502	-0.002885413123294711
0	5384	-0.021278642117977142
0	5430	0.00830045249313116
0	5424	-0.0010833714623004198
0	5380	-0.00794912502169609
0	5442	0.011209546588361263
0	5620	0.032203592360019684
0	5832	0.03833403438329697
0	6162	0.05956750735640526
0	6716	0.09961520880460739
0	5912	-0.1435355544090271
1	5030	-0.15712402760982513
0	5248	0.03896057605743408
0	5346	0.017547210678458214
0	5376	0.005376729648560286
0	5354	-0.003945622127503157
0	5432	0.014007950201630592
0	5470	0.006830028258264065
0	5478	0.0014384693931788206
0	5528	0.008993776515126228
0	5502	-0.00467637088149786
0	5564	0.011155092157423496
0	5638	0.013313023373484612
0	5800	0.02912726253271103
0	5794	-0.001077160588465631
0	6028	0.041952524334192276
0	6016	-0.002146562561392784
0	5956	-0.010707530193030834
0	5902	-0.009614471346139908
0	5804	-0.017418712377548218
0	5868	0.011356242932379246
0	5732	-0.024079889059066772
0	5656	-0.013428826816380024
0	5624	-0.005646726582199335
0	5786	0.028552964329719543
0	5852	0.011605007573962212
0	5892	0.007016477175056934
0	5590	-0.05289028584957123
0	5420	-0.029814796522259712
0	5152	-0.04720692336559296
0	5006	-0.025955555960536003
0	4822	-0.03288768231868744
0	4854	0.0057266936637461185
0	4858	0.0007175231003202498
0	4836	-0.003957925830036402
0	4976	0.02526862919330597
0	4954	-0.003979835659265518
0	4990	0.006531283725053072
0	5074	0.015284028835594654
0	5118	0.008025584742426872
0	5196	0.014262727461755276
0	5298	0.01868611015379429
0	5352	0.00990874134004116
0	5350	-0.00036763353273272514
0	5352	0.00036864998401142657
0	5396	0.008132385089993477
0	5474	0.01447285432368517
0	5484	0.0018617351306602359
0	5484	0.0
0	5538	0.010109204798936844
0	5438	-0.018751876428723335
0	5514	0.014289832673966885
0	5502	-0.0022593762259930372
0	5534	0.006030832417309284
0	5588	0.010182786732912064
0	5484	-0.019635731354355812
0	5524	0.007569735869765282
0	5566	0.007966716773808002
0	5532	-0.0064502255991101265
0	5570	0.007203973364084959
0	5572	0.00037815762334503233
0	5538	-0.006405828054994345
0	5588	0.009378165006637573
0	5606	0.0033607168588787317
0	5572	-0.006318606901913881
0	5594	0.004069953691214323
0	5572	-0.004054502118378878
0	5624	0.009547123685479164
0	5670	0.008412890136241913
0	5650	-0.0036445362493395805
0	5576	-0.013441348448395729
0	5662	0.01558516826480627
0	5688	0.00470145745202899
0	5656	-0.0057747140526771545
0	5702	0.00828589964658022
0	5678	-0.004314012359827757
0	5684	0.0010766838677227497
0	5644	-0.007168887183070183
0	5684	0.007162041030824184
0	5528	-0.02789865992963314
0	5546	0.0032192678190767765
0	5468	-0.013941185548901558
0	5484	0.0028605142142623663
0	5454	-0.005364039447158575
0	5408	-0.008228784427046776
0	5436	0.005014206748455763
0	5692	0.04585731774568558
0	5784	0.01646345853805542
0	6092	0.05504521727561951
0	6706	0.10936813056468964
1	5800	-0.1602991372346878
0	4996	-0.14206118881702423
0	5268	0.04821440950036049
0	5370	0.01811465620994568
0	5326	-0.007825098000466824
0	5378	0.00926134828478098
0	5404	0.004636619705706835
0	5360	-0.007854431867599487
0	5430	0.012515346519649029
0	5438	0.0014323740033432841
0	5472	0.0060953013598918915
0	5436	-0.006457862444221973
0	5496	0.010777668096125126
0	5534	0.006833713036030531
0	5544	0.0017996616661548615
0	5604	0.010808213613927364
0	5562	-0.007569113280624151
0	5588	0.004689078312367201
0	5594	0.0010824593482539058
0	5636	0.007581319194287062
0	5692	0.010101860389113426
0	5728	0.006488357204943895
0	5770	0.007557943928986788
0	5770	0.0
0	5806	0.006454929243773222
0	5708	-0.017530051991343498
0	5634	-0.013215543702244759
0	5540	-0.016793111339211464
0	5398	-0.02540523186326027
0	5270	-0.022995663806796074
0	5172	-0.017758771777153015
0	5082	-0.01637117750942707
0	5060	-0.003999757580459118
0	5134	0.013470710255205631
0	5166	0.00583352567628026
0	5140	-0.0047443523071706295
0	5174	0.006213147658854723
0	5270	0.01756761595606804
0	5278	0.0014647721545770764
0	5374	0.017593588680028915
0	5408	0.006233499851077795
0	5348	-0.011004597879946232
0	5512	0.030095424503087997
0	5472	-0.007339628878980875
0	5538	0.012114983052015305
0	5424	-0.020926646888256073
0	5494	0.01286386325955391
0	5474	-0.0036769211292266846
0	5566	0.016925662755966187
0	5562	-0.0007360246963799
0	5544	-0.003313615219667554
0	5522	-0.004053655546158552
0	5538	0.002951847855001688
0	5512	-0.004803606308996677
0	5518	0.0011102886637672782
0	5514	-0.0007415097206830978
0	5576	0.011507195420563221
0	5562	-0.0025993315503001213
0	5570	0.0014851301675662398
0	5552	-0.003337990026921034
0	5554	0.0003702423709910363
0	5566	0.002216230146586895
0	5544	-0.004051018040627241
0	5608	0.01174987480044365
0	5510	-0.017939956858754158
0	5582	0.013152766972780228
0	5540	-0.007651852909475565
0	5562	0.0039992243982851505
0	5542	-0.0036292371805757284
0	5596	0.00978331733494997
0	5620	0.004342319443821907
0	5574	-0.008312150835990906
0	5534	-0.007218131795525551
0	5566	0.005773741286247969
0	5586	0.0036065494641661644
0	5630	0.007932120002806187
0	5642	0.002160630887374282
0	5686	0.007915282621979713
0	5660	-0.004671274218708277
0	5642	-0.0032321393955498934
0	5568	-0.013281324878334999
0	5450	-0.021175289526581764
0	5478	0.005026809871196747
0	5370	-0.019396087154746056
0	5402	0.00575187848880887
0	5472	0.012590984813869
0	5438	-0.006117161829024553
0	5674	0.042495470494031906
0	5826	0.02735157683491707
0	6254	0.07689820230007172
0	6812	0.09983539581298828
0	6010	-0.14242248237133026
0	5318	-0.1225660964846611
0	5022	-0.05249716341495514
0	5284	0.046628620475530624
0	5294	0.0017821076326072216
0	5318	0.004284387920051813
0	5370	0.009295119903981686
0	5340	-0.005368711426854134
0	5426	0.015408871695399284
0	5406	-0.003587100887671113
0	5478	0.012930105440318584
0	5436	-0.007546898443251848
0	5460	0.004315046593546867
0	5524	0.011514104902744293
0	5494	-0.0053992439061403275
0	5530	0.006484383717179298
0	5528	-0.0003604859230108559
0	5584	0.010103196837008
0	5560	-0.0043319216929376125
0	5596	0.006501089781522751
0	5688	0.016611095517873764
0	5672	-0.0028847542125731707
0	5746	0.013326450251042843
0	5760	0.0025155425537377596
0	5790	0.0053789145313203335
0	5784	-0.0010737422853708267
0	5726	-0.010358128696680069
0	5588	-0.024637576192617416
0	5476	-0.020024076104164124
0	5298	-0.03197221830487251
0	5180	-0.021388951689004898
0	5068	-0.020403701812028885
0	5134	0.012041890993714333
0	5172	0.006928490474820137
0	5156	-0.002919246442615986
0	5226	0.012782431207597256
0	5208	-0.0032887523993849754
0	5294	0.01572844758629799
0	5304	0.0018294021720066667
0	5360	0.010252279229462147
0	5346	-0.002563789486885071
0	5370	0.004398611839860678
0	5388	0.003300289623439312
0	5500	0.020544176921248436
0	5490	-0.001834570663049817
0	5460	-0.0055038463324308395
0	5456	-0.0007341604796238244
0	5520	0.011751743964850903
0	5580	0.011021577753126621
0	5486	-0.01726502552628517
0	5486	0.0
0	5526	0.007360879331827164
0	5462	-0.011787964031100273
0	5516	0.009963467717170715
0	5512	-0.00073914387030527
0	5542	0.005553087685257196
0	5496	-0.008527467027306557
0	5508	0.0022277228999882936
0	5550	0.007800891529768705
0	5440	-0.020421549677848816
0	5528	0.016322895884513855
0	5546	0.0033316060435026884
0	5452	-0.017347227782011032
0	5542	0.016576619818806648
0	5500	-0.007718223612755537
0	5554	0.009902563877403736
0	5516	-0.006954526994377375
0	5472	-0.008037508465349674
0	5572	0.018247287720441818
0	5496	-0.013845368288457394
0	5596	0.018202558159828186
0	5546	-0.009087493643164635
0	5580	0.006172914523631334
0	5540	-0.007253823336213827
0	5578	0.0068894666619598866
0	5630	0.00942267943173647
0	5624	-0.0010861170012503862
0	5704	0.014466894790530205
0	5708	0.0007225433364510536
0	5686	-0.0039709280245006084
0	5654	-0.005768953822553158
0	5594	-0.010805878788232803
0	5516	-0.014041909947991371
0	5396	-0.021595939993858337
0	5394	-0.0003601916250772774
0	5384	-0.0018022347940132022
0	5420	0.006494209636002779
0	5398	-0.003970497753471136
0	5472	0.01336415484547615
0	5706	0.042279478162527084
0	5882	0.03174908459186554
0	6690	0.14544756710529327
0	6926	0.04219258576631546
1	5714	-0.21479713916778564
0	4944	-0.13632501661777496
0	5228	0.050446439534425735
0	5252	0.0042713237926363945
0	5252	0.0
0	5282	0.005354529246687889
0	5314	0.005721369292587042
0	5364	0.008949346840381622
0	5364	0.0
0	5364	0.0
0	5400	0.006467840634286404
0	5416	0.0028770079370588064
0	5436	0.0035997554659843445
0	5496	0.010811849497258663
0	5482	-0.002524706069380045
0	5528	0.008306547999382019
0	5576	0.0086771035566926
0	5578	0.000361785787390545
0	5700	0.022079050540924072
0	5630	-0.012660211883485317
0	5696	0.011928573250770569
0	5772	0.013711152598261833
0	5772	0.0
0	5830	0.010415793396532536
0	5770	-0.010748579166829586
0	5784	0.002502442803233862
0	5720	-0.011418513022363186
0	5578	-0.02533271536231041
0	5362	-0.03860405832529068
0	5204	-0.028463339433073997
0	5086	-0.021479539573192596
0	5042	-0.008039955981075764
0	5054	0.002191407373175025
0	5020	-0.006215570494532585
0	5106	0.01574399508535862
0	5164	0.010627511888742447
0	5196	0.005867683794349432
0	5300	0.019083736464381218
0	5236	-0.011748436838388443
0	5336	0.018371321260929108
0	5380	0.008084767498075962
0	5328	-0.009555895812809467
0	5458	0.02390262484550476
0	5418	-0.007353662047535181
0	5466	0.008828614838421345
0	5454	-0.0022073700092732906
0	5500	0.008465426973998547
0	5508	0.0014729347312822938
0	5514	0.0011051759356632829
0	5526	0.002212879015132785
0	5510	-0.002952392678707838
0	5588	0.014409399591386318
0	5468	-0.02219345234334469
0	5558	0.016676342114806175
0	5472	-0.015961987897753716
0	5540	0.012644419446587563
0	5554	0.002607205882668495
0	5544	-0.0018642108188942075
0	5596	0.009695944376289845
0	5520	-0.014150416478514671
0	5528	0.0014866020064800978
0	5530	0.00037063576746731997
0	5506	-0.004434261936694384
0	5542	0.006632928736507893
0	5484	-0.01065223477780819
0	5580	0.017590578645467758
0	5540	-0.007310831919312477
0	5576	0.006565988529473543
0	5512	-0.011653314344584942
0	5556	0.007998255081474781
0	5514	-0.007624534424394369
0	5488	-0.004716125316917896
0	5566	0.014134702272713184
0	5466	-0.018109599128365517
0	5522	0.010138438083231449
0	5508	-0.0025337531697005033
0	5606	0.01773049496114254
0	5560	-0.008317161351442337
0	5536	-0.0043380288407206535
0	5600	0.011566543020308018
0	5598	-0.00036129343789070845
0	5612	0.0025277144741266966
0	5548	-0.011553597636520863
0	5704	0.028148343786597252
0	5648	-0.010095668956637383
0	5628	-0.003601786680519581
0	5598	-0.005399826914072037
0	5500	-0.01763477921485901
0	5418	-0.014759527519345284
0	5386	-0.005765973590314388
0	5394	0.001442654407583177
0	5458	0.011550539173185825
0	5434	-0.004333329387009144
0	5552	0.021314771845936775
0	5770	0.03937576711177826
0	6040	0.04868432506918907
0	6786	0.13414210081100464
0	6942	0.02784322202205658
1	5612	-0.23546768724918365
0	5088	-0.09271601587533951
0	5250	0.028743449598550797
0	5248	-0.0003554123395588249
0	5274	0.00462693814188242
0	5314	0.007130718324333429
0	5340	0.004639156628400087
0	5344	0.0007144898409023881
0	5398	0.009655041620135307
0	5392	-0.0010741138830780983
0	5418	0.004659164231270552
0	5426	0.0014346000971272588
0	5476	0.008975586853921413
0	5526	0.008982143364846706
0	5530	0.0007189417374320328
0	5586	0.010066269896924496
0	5608	0.00395740382373333
0	5662	0.009715958498418331
0	5660	-0.0003597769245970994
0	5664	0.0007192864431999624
0	5722	0.010419411584734917
0	5736	0.002510460326448083
0	5850	0.02039964124560356
0	5822	-0.004996847361326218
0	5812	-0.0017807325348258018
0	5806	-0.0010660475818440318
0	5710	-0.017031140625476837
0	5514	-0.03478425368666649
0	5290	-0.0398775190114975
0	5172	-0.02119506523013115
0	5012	-0.02904689870774746
0	5002	-0.0018220467027276754
0	5044	0.007656595204025507
0	5050	0.0010951702715829015
0	5152	0.01864035055041313
0	5152	0.0
0	5126	-0.004759696312248707
0	5244	0.021629944443702698
0	5250	0.001100500114262104
0	5290	0.007343312259763479
0	5364	0.013593612238764763
0	5396	0.005880263168364763
0	5416	0.0036758400965481997
0	5404	-0.002206315053626895
0	5474	0.012879800982773304
0	5448	-0.004785569850355387
0	5534	0.015842605382204056
0	5524	-0.0018430009949952364
0	5500	-0.004426955245435238
0	5464	-0.006646972149610519
0	5526	0.011461670510470867
0	5528	0.00037017842987552285
0	5512	-0.002965232590213418
0	5552	0.007428592536598444
0	5484	-0.012649750337004662
0	5518	0.006337765604257584
0	5500	-0.003361302660778165
0	5498	-0.00037396690458990633
0	5522	0.004488050471991301
0	5478	-0.008216210640966892
0	5522	0.008200591430068016
0	5522	0.0
0	5532	0.0018519205041229725
0	5524	-0.0014770866837352514
0	5560	0.006627555936574936
0	5518	-0.007712837308645248
0	5510	-0.001465827925130725
0	5554	0.008043189533054829
0	5528	-0.004743833094835281
0	5518	-0.0018214713782072067
0	5518	0.0
0	5560	0.007632478140294552
0	5592	0.005809450056403875
0	5554	-0.006891382392495871
0	5620	0.011958399787545204
0	5660	0.007241129409521818
0	5676	0.0028927510138601065
0	5680	0.0007225694716908038
0	5706	0.004692293703556061
0	5622	-0.015140955336391926
0	5520	-0.018368009477853775
0	5432	-0.015847479924559593
0	5470	0.006847175769507885
0	5386	-0.015139681287109852
0	5442	0.010103196837008
0	5466	0.004331035539507866
0	5610	0.02599434368312359
0	5856	0.04437762871384621
0	6172	0.056882958859205246
0	6854	0.12228943407535553
0	6198	-0.11666785925626755
0	5428	-0.13639584183692932
0	5030	-0.07053985446691513
0	5244	0.038041286170482635
0	5266	0.003917285706847906
0	5300	0.00606456957757473
0	5266	-0.006072440184652805
0	5318	0.009300773032009602
0	5336	0.003224034560844302
0	5392	0.010041841305792332
0	5382	-0.0017945374129340053
0	5412	0.005387995857745409
0	5418	0.0010785547783598304
0	5442	0.0043187215924263
0	5508	0.011884468607604504
0	5518	0.0018018883420154452
0	5552	0.006131649948656559
0	5570	0.0032485893461853266
0	5602	0.005779094062745571
0	5694	0.016625303775072098
0	5720	0.004696418531239033
0	5718	-0.00036082847509533167
0	5814	0.0172900278121233
0	5824	0.0017973327776417136
0	5822	-0.00035852575092576444
0	5834	0.002146280836313963
0	5852	0.0032123734708875418
0	5774	-0.01390027441084385
0	5652	-0.021752050146460533
0	5432	-0.0393466055393219
0	5208	-0.04040452837944031
0	5094	-0.020686151459813118
0	5086	-0.001454598386771977
0	4992	-0.017085732892155647
0	5022	0.005461231339722872
0	5030	0.0014584878226742148
0	5152	0.022278493270277977
0	5200	0.008771395310759544
0	5188	-0.002194426255300641
0	5238	0.009151698090136051
0	5300	0.011358777992427349
0	5344	0.00806510727852583
0	5382	0.006968215107917786
0	5390	0.0014673155965283513
0	5406	0.0029355643782764673
0	5406	0.0
0	5498	0.016901616007089615
0	5434	-0.011761534959077835
0	5494	0.011035633273422718
0	5506	0.0022085888776928186
0	5502	-0.0007370463572442532
0	5472	-0.00553525984287262
0	5522	0.009239411912858486
0	5526	0.0007404847419820726
0	5510	-0.002967395819723606
0	5552	0.0078044673427939415
0	5498	-0.010051872581243515
0	5518	0.003731111064553261
0	5528	0.001868530292995274
0	5580	0.009723867289721966
0	5468	-0.020924409851431847
0	5498	0.005595692433416843
0	5496	-0.00037211147719062865
0	5474	-0.004082844592630863
0	5538	0.011842056177556515
0	5528	-0.0018444512970745564
0	5496	-0.005884227808564901
0	5606	0.02018447406589985
0	5598	-0.0014643253525719047
0	5620	0.004016846418380737
0	5644	0.004371850285679102
0	5594	-0.009089035913348198
0	5640	0.008349264971911907
0	5598	-0.0076113613322377205
0	5508	-0.016289593651890755
0	5452	-0.010129513218998909
0	5418	-0.006148356478661299
0	5400	-0.0032565826550126076
0	5408	0.0014476669020950794
0	5436	0.0050694639794528484
0	5544	0.01956191100180149
0	5754	0.03802740201354027
0	5964	0.03796278312802315
0	6652	0.12404292821884155
0	5860	-0.1418338119983673
0	5108	-0.1343897134065628
0	5104	-0.000716734561137855
0	5310	0.036998897790908813
0	5394	0.01510574109852314
0	5450	0.010078588500618935
0	5438	-0.002161383396014571
0	5384	-0.009727977216243744
0	5428	0.00793192908167839
0	5442	0.0025248276069760323
0	5440	-0.0003607590333558619
0	5438	-0.0003609717241488397
0	5448	0.001805836451239884
0	5470	0.003973988350480795
0	5498	0.005061948671936989
0	5590	0.016642145812511444
0	5516	-0.0133884958922863
0	5604	0.015933753922581673
0	5640	0.006517960224300623
0	5638	-0.00036210889811627567
0	5650	0.0021721292287111282
0	5656	0.0010851349215954542
0	5778	0.022037306800484657
0	5744	-0.006128260865807533
0	5764	0.003597424365580082
0	5798	0.00610259547829628
0	5820	0.003940204158425331
0	5658	-0.028966505080461502
0	5620	-0.006798501592129469
0	5504	-0.02079598419368267
0	5312	-0.034658707678318024
0	5166	-0.02644224837422371
0	5134	-0.0057935332879424095
0	5154	0.0036203027702867985
0	5112	-0.007609798107296228
0	5124	0.0021779376547783613
0	5266	0.025823190808296204
0	5216	-0.009102161973714828
0	5332	0.021138567477464676
0	5312	-0.003646707162261009
0	5408	0.01751803420484066
0	5486	0.014236174523830414
0	5384	-0.018611101433634758
0	5494	0.020078610628843307
0	5440	-0.009855333715677261
0	5490	0.009128529578447342
0	5530	0.0073072705417871475
0	5512	-0.0032879915088415146
0	5574	0.011331652291119099
0	5504	-0.012798946350812912
0	5594	0.016469238325953484
0	5600	0.0010983244283124804
0	5538	-0.011353231966495514
0	5608	0.012836970388889313
0	5554	-0.00991104543209076
0	5622	0.012496630661189556
0	5598	-0.004415336064994335
0	5530	-0.012527172453701496
0	5588	0.010693347081542015
0	5604	0.00295046903192997
0	5614	0.0018429103074595332
0	5578	-0.006622191984206438
0	5620	0.00770642189309001
0	5626	0.00109765469096601
0	5698	0.013134052976965904
0	5730	0.005816630553454161
0	5748	0.0032598853576928377
0	5700	-0.008667806163430214
0	5722	0.003961204085499048
0	5700	-0.00395195372402668
0	5538	-0.029033299535512924
0	5446	-0.0164752509444952
0	5526	0.014329727739095688
0	5458	-0.01216994971036911
0	5560	0.018258845433592796
0	5524	-0.006439687218517065
0	5670	0.026111217215657234
0	5768	0.017512092366814613
0	5938	0.030331866815686226
0	6398	0.08189716935157776
0	6314	-0.014876208268105984
0	5534	-0.13755157589912415
0	5174	-0.0635099858045578
0	5282	0.019093867391347885
0	5446	0.029050201177597046
0	5482	0.006380942650139332
0	5480	-0.00035479027428664267
0	5476	-0.0007100759539753199
0	5482	0.0010654544457793236
0	5490	0.001421497785486281
0	5528	0.006756676360964775
0	5562	0.006048530340194702
0	5528	-0.006049104500561953
0	5526	-0.0003560239274520427
0	5594	0.012112000957131386
0	5660	0.011763028800487518
0	5590	-0.012481129728257656
0	5596	0.001070816651917994
0	5686	0.016072193160653114
0	5650	-0.006430255714803934
0	5702	0.009290913119912148
0	5690	-0.0021419646218419075
0	5762	0.012833156622946262
0	5788	0.004627706948667765
0	5806	0.0031975365709513426
0	5802	-0.0007095301989465952
0	5800	-0.0003541829064488411
0	5826	0.004600847139954567
0	5690	-0.024057738482952118
0	5546	-0.025510204955935478
0	5372	-0.030980700626969337
0	5316	-0.010026857256889343
0	5222	-0.01685272343456745
0	5268	0.008244712837040424
0	5214	-0.009679385460913181
0	5294	0.014359734952449799
0	5292	-0.00035939764347858727
0	5354	0.011153887026011944
0	5340	-0.0025204638950526714
0	5352	0.0021622402127832174
0	5372	0.003606722690165043
0	5328	-0.00794223789125681
0	5414	0.01554535236209631
0	5448	0.00615006173029542
0	5442	-0.0010858157183974981
0	5562	0.02173624187707901
0	5528	-0.006162248086184263
0	5524	-0.0007252420764416456
0	5494	-0.00544168334454298
0	5468	-0.004721606615930796
0	5606	0.0250884760171175
0	5526	-0.014552509412169456
0	5550	0.0043700989335775375
0	5546	-0.0007292882655747235
0	5572	0.004747355356812477
0	5564	-0.0014628081116825342
0	5528	-0.006592199206352234
0	5560	0.005869477521628141
0	5540	-0.003674399107694626
0	5624	0.015446665696799755
0	5550	-0.013601275160908699
0	5582	0.0058752247132360935
0	5596	0.002566233277320862
0	5676	0.0146307572722435
0	5672	-0.0007297228439711034
0	5668	-0.0007276961114257574
0	5678	0.0018151235999539495
0	5564	-0.02064419537782669
0	5448	-0.020979780703783035
0	5462	0.00253039482049644
0	5386	-0.013727332465350628
0	5498	0.02022804692387581
0	5440	-0.010464529506862164
0	5490	0.009019735269248486
0	5604	0.020559804514050484
0	5684	0.014413894154131413
0	5932	0.0446503609418869
0	6498	0.10165716707706451
0	5966	-0.09499660134315491
0	5388	-0.10292145609855652
0	5152	-0.042043253779411316
0	5302	0.026794645935297012
0	5384	0.014667303301393986
0	5452	0.012175179086625576
0	5388	-0.011465424671769142
0	5438	0.00896721612662077
0	5390	-0.00861501693725586
0	5444	0.009699901565909386
0	5404	-0.0071901059709489346
0	5456	0.009354761801660061
0	5394	-0.011165001429617405
0	5448	0.0097334710881114
0	5546	0.017678681761026382
0	5502	-0.00793975405395031
0	5532	0.0054191406816244125
0	5584	0.009401101619005203
0	5606	0.003979403525590897
0	5556	-0.009048026986420155
0	5650	0.017011111602187157
0	5720	0.01265243161469698
0	5682	-0.006857803091406822
0	5754	0.012970635667443275
0	5690	-0.011511757969856262
0	5734	0.007902488112449646
0	5638	-0.017216643318533897
0	5644	0.0010758214630186558
0	5486	-0.028336741030216217
0	5316	-0.030570408329367638
0	5236	-0.014488729648292065
0	5146	-0.016371970996260643
0	5160	0.0025504936929792166
0	5102	-0.010565818287432194
0	5114	0.0021886893082410097
0	5174	0.01096144039183855
0	5202	0.005124013405293226
0	5288	0.015755917876958847
0	5258	-0.00550128985196352
0	5376	0.02165587991476059
0	5322	-0.009914441965520382
0	5348	0.0047760168090462685
0	5370	0.004043919499963522
0	5332	-0.006985978689044714
0	5440	0.019869010895490646
0	5368	-0.013254622928798199
0	5490	0.022477706894278526
0	5414	-0.014006118290126324
0	5460	0.008486250415444374
0	5474	0.002585092792287469
0	5454	-0.0036948544438928366
0	5442	-0.002219591522589326
0	5466	0.004446804989129305
0	5474	0.0014842484379187226
0	5474	0.0
0	5462	-0.002233223058283329
0	5408	-0.010066487826406956
0	5474	0.012321095913648605
0	5460	-0.002616333309561014
0	5438	-0.004112047143280506
0	5444	0.00112061551772058
0	5438	-0.0011191663797944784
0	5526	0.01638469286262989
0	5538	0.002229212550446391
0	5480	-0.010745516046881676
0	5574	0.017375873401761055
0	5528	-0.008482181467115879
0	5542	0.002576370956376195
0	5484	-0.01065693236887455
0	5422	-0.011376147158443928
0	5394	-0.005136169958859682
0	5358	-0.00660074083134532
0	5354	-0.0007333708344958723
0	5340	-0.0025670488830655813
0	5356	0.00293362676165998
0	5418	0.011373641900718212
0	5634	0.039612192660570145
0	5718	0.015391193330287933
0	6034	0.05779289826750755
0	6420	0.07034895569086075
0	5746	-0.12213537096977234
0	5356	-0.07054737210273743
0	5016	-0.06153474748134613
0	5250	0.04246566817164421
0	5278	0.005088257137686014
0	5332	0.009824731387197971
0	5380	0.008739985525608063
0	5310	-0.01274797786027193
0	5424	0.020781682804226875
0	5438	0.0025526948738843203
0	5390	-0.008752097375690937
0	5462	0.013132454827427864
0	5418	-0.008024218492209911
0	5478	0.010949305258691311
0	5450	-0.005111541133373976
0	5486	0.006573181599378586
0	5492	0.0010961173102259636
0	5532	0.007309051230549812
0	5564	0.005847597029060125
0	5584	0.0036529679782688618
0	5594	0.0018246843246743083
0	5654	0.010934803634881973
0	5642	-0.002183035481721163
0	5684	0.007627303712069988
0	5666	-0.0032620513811707497
0	5704	0.006873680744320154
0	5630	-0.01336254645138979
0	5566	-0.011557075195014477
0	5490	-0.013736595399677753
0	5384	-0.01922193542122841
0	5286	-0.017883211374282837
0	5178	-0.01976332813501358
0	5228	0.00915963388979435
0	5172	-0.010245527140796185
0	5212	0.007321715820580721
0	5194	-0.003296099603176117
0	5296	0.018693644553422928
0	5292	-0.000733460474293679
0	5340	0.008802494034171104
0	5382	0.007706138771027327
0	5346	-0.006607525050640106
0	5400	0.009913956746459007
0	5362	-0.006979136262089014
0	5466	0.01910734549164772
0	5378	-0.01616894081234932
0	5460	0.015073159709572792
0	5436	-0.004412359558045864
0	5450	0.002574760001152754
0	5414	-0.006624141708016396
0	5408	-0.0011050401953980327
0	5492	0.01548729743808508
0	5440	-0.009593388065695763
0	5448	0.0014778507174924016
0	5464	0.0029592367354780436
0	5446	-0.0033336624037474394
0	5470	0.004450928419828415
0	5466	-0.0007428960525430739
0	5506	0.007436510641127825
0	5522	0.002975710667669773
0	5428	-0.017478834837675095
0	5508	0.014871546998620033
0	5504	-0.0007425558869726956
0	5536	0.005928487982600927
0	5578	0.007766368333250284
0	5622	0.008115884847939014
0	5626	0.0007359525188803673
0	5578	-0.008808094076812267
0	5638	0.01099115889519453
0	5446	-0.035097554326057434
0	5408	-0.006941907107830048
0	5320	-0.016073450446128845
0	5314	-0.0010960906511172652
0	5392	0.014256644062697887
0	5352	-0.007309763226658106
0	5394	0.007680585142225027
0	5540	0.026696573942899704
0	5740	0.03655282407999039
0	5920	0.03283672779798508
0	6410	0.08913411945104599
0	5736	-0.12186890095472336
0	5238	-0.08986790478229523
0	5016	-0.040122900158166885
0	5322	0.055446166545152664
0	5398	0.013781432062387466
0	5350	-0.008707535453140736
0	5360	0.0018151235999539495
0	5370	0.0018163324566558003
0	5348	-0.003998255357146263
0	5422	0.013461561873555183
0	5392	-0.005460701417177916
0	5426	0.0061901467852294445
0	5498	0.01311507262289524
0	5422	-0.013844192959368229
0	5480	0.010572622530162334
0	5442	-0.006931018084287643
0	5540	0.017894314602017403
0	5458	-0.014980634674429893
0	5566	0.01974502019584179
0	5540	-0.004755517467856407
0	5580	0.007311990484595299
0	5634	0.009860851801931858
0	5680	0.008383961394429207
0	5728	0.008729071356356144
0	5690	-0.006896467879414558
0	5720	0.005433470010757446
0	5718	-0.0003615198074840009
0	5648	-0.012639638036489487
0	5602	-0.008310649544000626
0	5378	-0.04054689779877663
0	5336	-0.007650179788470268
0	5196	-0.02556268312036991
0	5130	-0.012054060585796833
0	5094	-0.006570382043719292
0	5162	0.012427960522472858
0	5182	0.003660545451566577
0	5216	0.006229311693459749
0	5252	0.006601547822356224
0	5290	0.006973329931497574
0	5348	0.01064728107303381
0	5396	0.008815535344183445
0	5320	-0.013957588002085686
0	5396	0.013966651633381844
0	5372	-0.004413279239088297
0	5374	0.0003678860084619373
0	5398	0.004417503252625465
0	5440	0.007732717785984278
0	5452	0.002210704842582345
0	5440	-0.002210786333307624
0	5442	0.00036874969373457134
0	5450	0.001475887605920434
0	5518	0.012555082328617573
0	5498	-0.0036953093949705362
0	5494	-0.000739891198463738
0	5564	0.012966805137693882
0	5524	-0.00741537194699049
0	5552	0.005197055172175169
0	5452	-0.018579993396997452
0	5466	0.0026043604593724012
0	5548	0.01526698563247919
0	5550	0.0003719730593729764
0	5624	0.013744768686592579
0	5572	-0.009632959961891174
0	5668	0.017735518515110016
0	5598	-0.012886597774922848
0	5612	0.0025704423896968365
0	5502	-0.02014332264661789
0	5342	-0.029248319566249847
0	5382	0.007308071944862604
0	5366	-0.0029215917456895113
0	5384	0.003286430612206459
0	5434	0.009129641577601433
0	5394	-0.007298648357391357
0	5772	0.06897307187318802
0	5910	0.02511953003704548
0	6626	0.12990783154964447
0	6434	-0.03457881137728691
1	5308	-0.20158740878105164
0	5092	-0.038703665137290955
0	5366	0.04919857904314995
0	5304	-0.011137590743601322
0	5378	0.013304885476827621
0	5334	-0.007917655631899834
0	5376	0.007565204985439777
0	5376	0.0
0	5400	0.004330931231379509
0	5444	0.007945967838168144
0	5446	0.00036141532473266125
0	5496	0.00903570931404829
0	5544	0.008672713302075863
0	5506	-0.006866063456982374
0	5586	0.014458701945841312
0	5572	-0.00253085233271122
0	5532	-0.007231006398797035
0	5592	0.01085540559142828
0	5696	0.018816718831658363
0	5736	0.007233534939587116
0	5746	0.001805836451239884
0	5780	0.006124948617070913
0	5770	-0.0017971604829654098
0	5804	0.006095593329519033
0	5800	-0.0007153332117013633
0	5748	-0.009279086254537106
0	5652	-0.017094627022743225
0	5556	-0.017106810584664345
0	5364	-0.034285712987184525
0	5188	-0.03166644647717476
0	5134	-0.009788992814719677
0	5086	-0.008710484951734543
0	5118	0.005807200912386179
0	5194	0.01381282415241003
0	5238	0.008002230897545815
0	5296	0.010557356290519238
0	5320	0.004369568545371294
0	5356	0.006556581240147352
0	5314	-0.007650273386389017
0	5314	0.0
0	5420	0.019333187490701675
0	5436	0.0029186783358454704
0	5470	0.006204455159604549
0	5460	-0.0018256613984704018
0	5404	-0.010226567275822163
0	5534	0.023766575381159782
0	5496	-0.006948762107640505
0	5488	-0.0014632183592766523
0	5540	0.00951695442199707
0	5550	0.0018319267546758056
0	5530	-0.0036680197808891535
0	5518	-0.002203721785917878
0	5500	-0.003310892730951309
0	5538	0.007001252844929695
0	5476	-0.011441788636147976
0	5570	0.01738187111914158
0	5534	-0.006664198357611895
0	5572	0.007039557211101055
0	5592	0.0037046640645712614
0	5574	-0.00332951033487916
0	5596	0.004059739410877228
0	5600	0.0007360427989624441
0	5704	0.019076967611908913
0	5660	-0.008042209781706333
0	5692	0.005832321010529995
0	5698	0.0010905521921813488
0	5582	-0.021032782271504402
0	5438	-0.02606838196516037
0	5340	-0.017732208594679832
0	5394	0.009769276715815067
0	5362	-0.005786409135907888
0	5398	0.006511987186968327
0	5420	0.0039804596453905106
0	5502	0.014840733259916306
0	5826	0.05862414091825485
0	5922	0.01732601784169674
0	6668	0.1343240588903427
0	6942	0.04899156093597412
1	5854	-0.19286449253559113
0	4972	-0.15605831146240234
0	5190	0.03870417922735214
0	5330	0.024906009435653687
0	5280	-0.008904931135475636
0	5350	0.012483207508921623
0	5356	0.0010711862705647945
0	5358	0.0003573172725737095
0	5400	0.007513147778809071
0	5396	-0.0007161101093515754
0	5450	0.009677650406956673
0	5474	0.004304829984903336
0	5494	0.003589504398405552
0	5516	0.003950865473598242
0	5562	0.008265056647360325
0	5540	-0.003956217784434557
0	5630	0.016196178272366524
0	5624	-0.0010801469907164574
0	5742	0.021252324804663658
0	5754	0.0021591796539723873
0	5770	0.002873459830880165
0	5820	0.00895650777965784
0	5782	-0.006789674982428551
0	5754	-0.004990434739738703
0	5778	0.00426848791539669
0	5702	-0.013488251715898514
0	5648	-0.009572431445121765
0	5428	-0.03903985768556595
0	5266	-0.028831779956817627
0	5160	-0.019023461267352104
0	5162	0.0003628008416853845
0	5112	-0.009108131751418114
0	5100	-0.002184094861149788
0	5086	-0.0025495027657598257
0	5182	0.017508236691355705
0	5228	0.008394365198910236
0	5220	-0.0014609737554565072
0	5302	0.014987388625741005
0	5338	0.006582074798643589
0	5388	0.009145226329565048
0	5408	0.0036582688335329294
0	5392	-0.002927364781498909
0	5474	0.01501025166362524
0	5440	-0.006224522367119789
0	5454	0.0025642276741564274
0	5500	0.00843087863177061
0	5482	-0.0032998460810631514
0	5516	0.006238684523850679
0	5482	-0.006242808420211077
0	5516	0.0062527586705982685
0	5450	-0.012155442498624325
0	5516	0.012179369106888771
0	5522	0.0011092897038906813
0	5510	-0.0022221398539841175
0	5522	0.0022254916839301586
0	5524	0.00037150323623791337
0	5476	-0.008925914764404297
0	5538	0.011541611514985561
0	5516	-0.004092617426067591
0	5576	0.011144407093524933
0	5468	-0.020008398219943047
0	5566	0.018121525645256042
0	5482	-0.01548939011991024
0	5544	0.011405865661799908
0	5574	0.005503509659320116
0	5530	-0.00805251207202673
0	5646	0.021190309897065163
0	5622	-0.004372859373688698
0	5622	0.0
0	5666	0.007987607270479202
0	5534	-0.023922579362988472
0	5462	-0.0130387544631958
0	5340	-0.022084111347794533
0	5424	0.01521775871515274
0	5466	0.007609614636749029
0	5402	-0.011594763025641441
0	5458	0.010151425376534462
0	5760	0.054753128439188004
0	5854	0.017017271369695663
0	6238	0.06936165690422058
0	6916	0.12193659693002701
1	6026	-0.15866978466510773
0	4996	-0.1830742210149765
0	5214	0.03886887803673744
0	5340	0.02250508964061737
0	5310	-0.005364167504012585
0	5348	0.006803289521485567
0	5304	-0.00788351520895958
0	5346	0.007535704877227545
0	5376	0.005388124845921993
0	5386	0.0017981946002691984
0	5386	0.0
0	5418	0.005763273686170578
0	5484	0.01189132034778595
0	5460	-0.0043256753124296665
0	5532	0.01298591960221529
0	5494	-0.006853597704321146
0	5550	0.01010927651077509
0	5562	0.002167212311178446
0	5608	0.008310649544000626
0	5644	0.006506259087473154
0	5684	0.0072243898175656796
0	5714	0.005411060061305761
0	5802	0.01583683304488659
0	5768	-0.006104933097958565
0	5796	0.005018520634621382
0	5750	-0.008225350640714169
0	5786	0.0064260466024279594
0	5674	-0.019989052787423134
0	5484	-0.03394635021686554
0	5358	-0.022613337263464928
0	5154	-0.03695652261376381
0	5130	-0.004370841663330793
0	5050	-0.014557629823684692
0	5114	0.01165770087391138
0	5172	0.010579308494925499
0	5172	0.0
0	5194	0.004020516760647297
0	5252	0.01060665212571621
0	5336	0.01537016499787569
0	5358	0.004026501905173063
0	5368	0.001830540713854134
0	5452	0.015378231182694435
0	5420	-0.005857158452272415
0	5450	0.005493231117725372
0	5512	0.011353370733559132
0	5516	0.0007325649494305253
0	5452	-0.011719465255737305
0	5534	0.015024552121758461
0	5540	0.0010995455086231232
0	5512	-0.005133344791829586
0	5516	0.0007339270086959004
0	5474	-0.007714159786701202
0	5474	0.0
0	5482	0.0014744913205504417
0	5504	0.004061988089233637
0	5558	0.009988284669816494
0	5476	-0.015185372903943062
0	5502	0.004824105650186539
0	5544	0.007801084779202938
0	5532	-0.002228053752332926
0	5544	0.002225656993687153
0	5542	-0.0003700505767483264
0	5570	0.005167577415704727
0	5612	0.007726648356765509
0	5626	0.0025677080266177654
0	5660	0.0062186019495129585
0	5730	0.012765025720000267
0	5686	-0.007997673004865646
0	5674	-0.002175463130697608
0	5532	-0.025690507143735886
0	5366	-0.030001085251569748
0	5346	-0.003614631947129965
0	5422	0.01374437939375639
0	5328	-0.016999421641230583
0	5450	0.022079316899180412
0	5458	0.0014483657432720065
0	5712	0.04600171372294426
0	5862	0.027123792096972466
0	6286	0.07651863992214203
0	7020	0.13187208771705627
1	5678	-0.2389487773180008
0	4936	-0.13198933005332947
0	5266	0.05888931080698967
0	5324	0.010363064706325531
0	5330	0.0010730508947744966
0	5338	0.0014322202187031507
0	5410	0.012906926684081554
0	5328	-0.01470535434782505
0	5406	0.014002585783600807
0	5372	-0.00610873568803072
0	5424	0.009351733140647411
0	5512	0.015837403014302254
0	5500	-0.0021600346080958843
0	5534	0.006122669670730829
0	5550	0.0028826058842241764
0	5618	0.012256668880581856
0	5626	0.0014423249522224069
0	5636	0.0018040338763967156
0	5636	0.0
0	5682	0.008302949368953705
0	5756	0.013344874605536461
0	5740	-0.0028786296024918556
0	5766	0.004666746128350496
0	5770	0.00071648636367172
0	5774	0.0007146004936657846
0	5784	0.0017830608412623405
0	5734	-0.008898063562810421
0	5636	-0.017437929287552834
0	5474	-0.028864657506346703
0	5254	-0.03938887268304825
0	5192	-0.011218740604817867
0	5070	-0.022140489891171455
0	5096	0.004714643117040396
0	5118	0.003993416670709848
0	5152	0.006179346237331629
0	5212	0.01091650128364563
0	5266	0.009832363575696945
0	5302	0.006560643669217825
0	5362	0.010936133563518524
0	5346	-0.0029170820489525795
0	5388	0.007658550050109625
0	5372	-0.002918181475251913
0	5480	0.01971450448036194
0	5494	0.0025558951310813427
0	5504	0.0018260837532579899
0	5538	0.00621042400598526
0	5514	-0.004385964944958687
0	5528	0.002560226246714592
0	5484	-0.008051726035773754
0	5528	0.008059198036789894
0	5522	-0.001100015826523304
0	5532	0.001835985342040658
0	5518	-0.00257365545257926
0	5520	0.00036822466063313186
0	5516	-0.0007375809946097434
0	5466	-0.009234406054019928
0	5508	0.007772116921842098
0	5538	0.00555926188826561
0	5504	-0.006304312963038683
0	5476	-0.0051908246241509914
0	5508	0.005924243945628405
0	5494	-0.002586812013760209
0	5486	-0.0014743282226845622
0	5568	0.0150757459923625
0	5624	0.010267316363751888
0	5606	-0.0032907165586948395
0	5646	0.007295187097042799
0	5704	0.010553641244769096
0	5626	-0.014158306643366814
0	5680	0.0097862733528018
0	5544	-0.024597279727458954
0	5446	-0.017707856371998787
0	5364	-0.014810176566243172
0	5366	0.00036147626815363765
0	5404	0.006873349193483591
0	5398	-0.0010859204921871424
0	5462	0.011592942290008068
0	5724	0.047473516315221786
0	5906	0.032938793301582336
0	6540	0.11445144563913345
0	6994	0.08146127313375473
1	5824	-0.20810112357139587
0	4950	-0.15518465638160706
0	5244	0.05237778276205063
0	5322	0.013918960466980934
0	5320	-0.00035730874515138566
0	5336	0.0028609575238078833
0	5390	0.009665641002357006
0	5410	0.0035830307751893997
0	5364	-0.008245599456131458
0	5438	0.013273542746901512
0	5436	-0.0003588946128729731
0	5482	0.00825744029134512
0	5480	-0.0003590277337934822
0	5534	0.009698856621980667
0	5544	0.0017970529152080417
0	5584	0.007190881762653589
0	5626	0.007553232368081808
0	5614	-0.0021590760443359613
0	5696	0.014754747971892357
0	5758	0.011154957115650177
0	5784	0.00467188935726881
0	5814	0.005379750393331051
0	5760	-0.009657572954893112
0	5862	0.018199335783720016
0	5758	-0.018505776301026344
0	5734	-0.004261464346200228
0	5632	-0.018082113936543465
0	5532	-0.01773720607161522
0	5348	-0.0327087864279747
0	5202	-0.02613833174109459
0	5152	-0.00904824584722519
0	5072	-0.014536116272211075
0	5076	0.0007262691506184638
0	5134	0.010541621595621109
0	5220	0.015648502856492996
0	5244	0.0043696747161448
0	5228	-0.0029147437307983637
0	5294	0.012035157531499863
0	5326	0.005839344579726458
0	5404	0.014236695133149624
0	5422	0.003286070888862014
0	5408	-0.00255605042912066
0	5512	0.018996357917785645
0	5426	-0.015705468133091927
0	5474	0.008771608583629131
0	5508	0.0062158736400306225
0	5506	-0.00036580904270522296
0	5482	-0.004392922390252352
0	5494	0.00219823163934052
0	5534	0.007336487527936697
0	5510	-0.004407929256558418
0	5552	0.007726837880909443
0	5458	-0.017321228981018066
0	5524	0.012184316292405128
0	5566	0.007769816089421511
0	5544	-0.004074728116393089
0	5536	-0.0014834594912827015
0	5510	-0.004824105650186539
0	5542	0.005938168615102768
0	5504	-0.007043123245239258
0	5538	0.006290006451308727
0	5532	-0.0011073652422055602
0	5554	0.004048881120979786
0	5532	-0.004037043079733849
0	5524	-0.0014644504990428686
0	5566	0.007674130145460367
0	5552	-0.0025530364364385605
0	5532	-0.003640025621280074
0	5662	0.0236260537058115
0	5608	-0.009793964214622974
0	5606	-0.00036229260149411857
0	5722	0.02098965086042881
0	5660	-0.011197399348020554
0	5676	0.002887079259380698
0	5482	-0.0349532775580883
0	5376	-0.019097264856100082
0	5410	0.006130397319793701
0	5360	-0.009020495228469372
0	5388	0.0050551858730614185
0	5434	0.008310249075293541
0	5534	0.018076645210385323
0	5746	0.03831694647669792
0	5892	0.02635728009045124
0	6292	0.07202362269163132
0	6936	0.1154259741306305
1	5840	-0.19484443962574005
0	4992	-0.15049158036708832
0	5276	0.05056319758296013
0	5396	0.02139444276690483
0	5282	-0.020342370495200157
0	5328	0.008219178766012192
0	5370	0.0075138648971915245
0	5414	0.007879279553890228
0	5428	0.002509140409529209
0	5388	-0.00717342970892787
0	5466	0.013999569229781628
0	5480	0.002514247316867113
0	5532	0.009342660196125507
0	5524	-0.0014373322483152151
0	5534	0.0017981515266001225
0	5546	0.002158739371225238
0	5542	-0.0007198387756943703
0	5610	0.012250486761331558
0	5608	-0.0003604166558943689
0	5714	0.01910988800227642
0	5730	0.0028804955072700977
0	5740	0.0017964933067560196
0	5802	0.011116291396319866
0	5788	-0.0025035168509930372
0	5780	-0.0014271781546995044
0	5736	-0.007833362556993961
0	5648	-0.015647968277335167
0	5518	-0.023129751905798912
0	5384	-0.02389443665742874
0	5254	-0.023306958377361298
0	5152	-0.018472684547305107
0	5096	-0.010184163227677345
0	5154	0.010541237890720367
0	5080	-0.01345911342650652
0	5164	0.015307238325476646
0	5226	0.011306303553283215
0	5250	0.0043793488293886185
0	5288	0.006939033977687359
0	5300	0.0021929556969553232
0	5374	0.013533780351281166
0	5372	-0.00036580904270522296
0	5370	-0.00036601879401132464
0	5470	0.018313229084014893
0	5450	-0.003664032556116581
0	5514	0.01173020526766777
0	5510	-0.0007332274108193815
0	5498	-0.00220016622915864
0	5502	0.0007335860282182693
0	5508	0.0011011059395968914
0	5542	0.006243419833481312
0	5522	-0.0036764706019312143
0	5580	0.010675369761884212
0	5528	-0.009580425918102264
0	5534	0.0011072970228269696
0	5506	-0.005175473168492317
0	5512	0.0011109054321423173
0	5532	0.0037081444170325994
0	5512	-0.0037108047399669886
0	5510	-0.00037109421100467443
0	5502	-0.0014832210727036
0	5526	0.004442853853106499
0	5514	-0.002216312102973461
0	5540	0.004789683502167463
0	5550	0.001837829826399684
0	5510	-0.0073302136734128
0	5584	0.013532294891774654
0	5520	-0.0116781210526824
0	5564	0.008015545085072517
0	5596	0.0058197337202727795
0	5590	-0.0010892455466091633
0	5574	-0.002900863066315651
0	5646	0.013037966564297676
0	5638	-0.0014462536200881004
0	5642	0.0007223954889923334
0	5580	-0.011184202507138252
0	5416	-0.02957228384912014
0	5418	0.00036084148450754583
0	5396	-0.003971166908740997
0	5394	-0.0003612455911934376
0	5460	0.011929291300475597
0	5436	-0.004340068437159061
0	5684	0.044870633631944656
0	5852	0.030377183109521866
0	6102	0.045116037130355835
0	6730	0.1129455715417862
1	5832	-0.16032850742340088
0	5026	-0.14362934231758118
0	5234	0.03717738017439842
0	5376	0.025422818958759308
0	5336	-0.007167088333517313
0	5328	-0.0014348403783515096
0	5352	0.004309622570872307
0	5398	0.008268127217888832
0	5398	0.0
0	5446	0.008642834611237049
0	5470	0.004323077853769064
0	5502	0.00576805230230093
0	5510	0.0014421689556911588
0	5508	-0.0003606592945288867
0	5588	0.014434006065130234
0	5558	-0.005412817467004061
0	5606	0.008661341853439808
0	5650	0.007941474206745625
0	5602	-0.00866280123591423
0	5656	0.009747995994985104
0	5690	0.006134821567684412
0	5778	0.01585223898291588
0	5756	-0.003954511135816574
0	5742	-0.002511090599000454
0	5762	0.003579823998734355
0	5724	-0.006789432372897863
0	5686	-0.006777807138860226
0	5622	-0.011415117420256138
0	5480	-0.02536197565495968
0	5282	-0.035495318472385406
0	5234	-0.008680032566189766
0	5152	-0.014882032759487629
0	5086	-0.011969097889959812
0	5160	0.013431915082037449
0	5130	-0.005452496465295553
0	5174	0.00800698809325695
0	5200	0.0047358255833387375
0	5246	0.00838650856167078
0	5274	0.00510955136269331
0	5328	0.00986157264560461
0	5362	0.006213601678609848
0	5406	0.008046425879001617
0	5458	0.009514980018138885
0	5416	-0.007687614299356937
0	5444	0.005127954762428999
0	5462	0.003299442585557699
0	5496	0.006235938519239426
0	5480	-0.0029365341179072857
0	5526	0.008451325818896294
0	5500	-0.004779060371220112
0	5566	0.012143067084252834
0	5502	-0.011784056201577187
0	5526	0.004426519852131605
0	5556	0.005540984682738781
0	5472	-0.015532544814050198
0	5508	0.006668724585324526
0	5500	-0.0014839180512353778
0	5492	-0.0014856266789138317
0	5500	0.0014868229627609253
0	5496	-0.0007433193968608975
0	5526	0.005567515734583139
0	5498	-0.0051869782619178295
0	5502	0.0007394170970655978
0	5502	0.0
0	5522	0.003679898101836443
0	5518	-0.0007342143799178302
0	5556	0.006960386876016855
0	5550	-0.0010966247646138072
0	5550	0.0
0	5526	-0.004371054004877806
0	5536	0.001819085911847651
0	5580	0.007995541207492352
0	5658	0.01415899209678173
0	5588	-0.012691429816186428
0	5642	0.009780364111065865
0	5494	-0.02677343785762787
0	5448	-0.008319868706166744
0	5464	0.0028947049286216497
0	5442	-0.003980603534728289
0	5440	-0.0003620564821176231
0	5424	-0.002897500991821289
0	5462	0.006887468509376049
0	5554	0.016678955405950546
0	5806	0.04567810148000717
0	5938	0.023890536278486252
0	6742	0.14510715007781982
0	5948	-0.1422463208436966
1	5080	-0.1550886332988739
0	5268	0.0336732491850853
0	5396	0.022958267480134964
0	5336	-0.01076812669634819
0	5370	0.006108881905674934
0	5366	-0.0007192433695308864
0	5366	0.0
0	5372	0.0010806267382577062
0	5454	0.014781876467168331
0	5436	-0.0032460505608469248
0	5446	0.001804663217626512
0	5440	-0.0010834757704287767
0	5532	0.01662430167198181
0	5504	-0.005059387534856796
0	5538	0.006144726183265448
0	5534	-0.000723091943655163
0	5602	0.012301755137741566
0	5580	-0.00397964334115386
0	5600	0.003619210561737418
0	5664	0.011574073694646358
0	5650	-0.0025285363662987947
0	5738	0.015875879675149918
0	5718	-0.0036017431411892176
0	5736	0.00323616829700768
0	5682	-0.00969038624316454
0	5636	-0.0082439249381423
0	5518	-0.02113710343837738
0	5382	-0.024403372779488564
0	5212	-0.030605997890233994
0	5106	-0.0192605871707201
0	5104	-0.0003652701270766556
0	5096	-0.001460867002606392
0	5108	0.0021935971453785896
0	5182	0.013550962321460247
0	5216	0.006231976207345724
0	5244	0.005137049127370119
0	5244	0.0
0	5308	0.011759373359382153
0	5340	0.005881992168724537
0	5352	0.002207288984209299
0	5366	0.002576497383415699
0	5428	0.011415804736316204
0	5458	0.005524183623492718
0	5486	0.005158247426152229
0	5412	-0.01363401859998703
0	5492	0.014750894159078598
0	5520	0.0051641459576785564
0	5520	0.0
0	5526	0.0011075696675106883
0	5474	-0.009603309445083141
0	5560	0.015900993719697
0	5444	-0.021459756419062614
0	5458	0.0025946747045964003
0	5492	0.006311490666121244
0	5504	0.0022309531923383474
0	5516	0.0022334170062094927
0	5466	-0.00931283738464117
0	5530	0.011924280785024166
0	5506	-0.004467498976737261
0	5536	0.005574205424636602
0	5532	-0.0007412531995214522
0	5558	0.004805441480129957
0	5528	-0.0055290027521550655
0	5558	0.005514773540198803
0	5516	-0.007702935487031937
0	5572	0.010251778177917004
0	5488	-0.015346950851380825
0	5478	-0.001824307139031589
0	5568	0.016401806846261024
0	5562	-0.0010919414926320314
0	5600	0.006906830705702305
0	5586	-0.0025410193484276533
0	5646	0.010879682376980782
0	5724	0.014127533882856369
0	5610	-0.02061830647289753
0	5688	0.014090443961322308
0	5510	-0.03211721032857895
0	5464	-0.00830045249313116
0	5396	-0.012274368666112423
0	5444	0.008671042509377003
0	5378	-0.011924837715923786
0	5456	0.014108453877270222
0	5504	0.008681497536599636
0	5698	0.03507799282670021
0	5850	0.027449706569314003
0	6454	0.10884975641965866
0	6588	0.024013474583625793
1	5466	-0.19972941279411316
0	5076	-0.06945104151964188
0	5356	0.04998988285660744
0	5362	0.0010723605519160628
0	5398	0.00644068606197834
0	5384	-0.0025071033742278814
0	5432	0.008603177964687347
0	5410	-0.003946093842387199
0	5406	-0.000717926595825702
0	5516	0.019762609153985977
0	5470	-0.008262977935373783
0	5488	0.0032334942370653152
0	5474	-0.002516145119443536
0	5528	0.009710251353681087
0	5548	0.0035979419481009245
0	5556	0.0014395047910511494
0	5634	0.014042751863598824
0	5638	0.0007205302827060223
0	5664	0.004682659637182951
0	5676	0.002161538926884532
0	5726	0.008997444994747639
0	5768	0.007545994594693184
0	5702	-0.011831632815301418
0	5808	0.01897306740283966
0	5774	-0.006070127710700035
0	5642	-0.023521864786744118
0	5604	-0.006765900179743767
0	5412	-0.03420468047261238
0	5298	-0.020361991599202156
0	5152	-0.02625836245715618
0	5156	0.0007256543030962348
0	5166	0.0018175429431721568
0	5074	-0.016712283715605736
0	5180	0.01928839273750782
0	5250	0.012751693837344646
0	5258	0.0014586474280804396
0	5310	0.009488473646342754
0	5368	0.010591156780719757
0	5332	-0.006575502455234528
0	5356	0.004385644569993019
0	5436	0.014633075334131718
0	5392	-0.0080498605966568
0	5446	0.009885161183774471
0	5418	-0.005126515403389931
0	5464	0.008427789434790611
0	5512	0.008798728697001934
0	5490	-0.0040338351391255856
0	5478	-0.002202211879193783
0	5500	0.004041343927383423
0	5500	0.0
0	5562	0.01141300331801176
0	5468	-0.017321016639471054
0	5530	0.011445591226220131
0	5516	-0.002587226452305913
0	5546	0.00555404694750905
0	5524	-0.004078706726431847
0	5498	-0.004823807626962662
0	5506	0.0014852220192551613
0	5498	-0.001484358566813171
0	5548	0.009265779517591
0	5542	-0.0011091803899034858
0	5498	-0.008114688098430634
0	5492	-0.0011042944388464093
0	5500	0.0014686264330521226
0	5486	-0.002565073547884822
0	5502	0.002927293535321951
0	5494	-0.0014614720130339265
0	5542	0.00875901710242033
0	5524	-0.003281158860772848
0	5492	-0.005826374050229788
0	5512	0.0036384807899594307
0	5580	0.012365134432911873
0	5512	-0.012351060286164284
0	5498	-0.0025418498553335667
0	5598	0.018147282302379608
0	5598	0.0
0	5630	0.005799413193017244
0	5672	0.007605297025293112
0	5684	0.002170400694012642
0	5614	-0.01264664065092802
0	5612	-0.00036108470521867275
0	5544	-0.012273186817765236
0	5430	-0.02056623250246048
0	5358	-0.012997015379369259
0	5382	0.004336460959166288
0	5416	0.00614939397200942
0	5478	0.011220906861126423
0	5500	0.003982092719525099
0	5858	0.06480185687541962
0	6072	0.03865234553813934
0	6758	0.1235145851969719
0	6472	-0.05112133547663689
1	5556	-0.1627865582704544
0	5062	-0.08775773644447327
0	5308	0.04381486400961876
0	5292	-0.002852761885151267
0	5332	0.007140816655009985
0	5340	0.0014295413857325912
0	5398	0.010376661084592342
0	5386	-0.0021485097240656614
0	5434	0.008599478751420975
0	5488	0.009678922593593597
0	5438	-0.008966893889009953
0	5512	0.013276876881718636
0	5446	-0.011840546503663063
0	5534	0.01580175943672657
0	5546	0.0021556110586971045
0	5568	0.003953942563384771
0	5598	0.005395101383328438
0	5610	0.002159153576940298
0	5688	0.014034834690392017
0	5718	0.005395554006099701
0	5708	-0.0017966439481824636
0	5774	0.011838139966130257
0	5794	0.0035784149076789618
0	5822	0.004997501615434885
0	5800	-0.003917146474123001
0	5756	-0.007819348946213722
0	5690	-0.01171126402914524
0	5538	-0.02699822373688221
0	5344	-0.03456754982471466
0	5180	-0.029469547793269157
0	5108	-0.0130387544631958
0	5098	-0.0018158486345782876
0	5050	-0.00871417485177517
0	5068	0.0032729257363826036
0	5086	0.003277375129982829
0	5222	0.024799415841698647
0	5246	0.004379508551210165
0	5304	0.01059360709041357
0	5320	0.0029238341376185417
0	5314	-0.0010971996234729886
0	5310	-0.0007322431192733347
0	5436	0.02308368869125843
0	5412	-0.004398934543132782
0	5416	0.0007333080866374075
0	5480	0.01174139603972435
0	5466	-0.002569467294961214
0	5496	0.005509439390152693
0	5532	0.006615458521991968
0	5506	-0.004780114628374577
0	5492	-0.002576781902462244
0	5524	0.005897965282201767
0	5548	0.004428479820489883
0	5490	-0.01071705762296915
0	5528	0.007034692447632551
0	5556	0.005192878190428019
0	5516	-0.007429604418575764
0	5534	0.003348297206684947
0	5490	-0.008192651905119419
0	5522	0.005960067268460989
0	5546	0.004465116187930107
0	5482	-0.011880011297762394
0	5518	0.006667078472673893
0	5510	-0.001477741519920528
0	5560	0.009209799580276012
0	5580	0.003672824939712882
0	5512	-0.012449955567717552
0	5582	0.012793488800525665
0	5526	-0.010213883593678474
0	5566	0.007285797502845526
0	5530	-0.006547438446432352
0	5566	0.006538876332342625
0	5542	-0.004352504387497902
0	5570	0.005074670072644949
0	5574	0.0007242615683935583
0	5512	-0.011215358972549438
0	5522	0.0018085798947140574
0	5544	0.003977532964199781
0	5568	0.004337872378528118
0	5604	0.0065053971484303474
0	5624	0.003611977444961667
0	5668	0.007940040901303291
0	5682	0.002524190116673708
0	5670	-0.0021618506871163845
0	5644	-0.004678952042013407
0	5562	-0.014746434055268764
0	5462	-0.017982808873057365
0	5444	-0.003237953409552574
0	5354	-0.01619850844144821
0	5438	0.015130954794585705
0	5410	-0.00504619674757123
0	5494	0.015150967985391617
0	5552	0.0104606281965971
0	5804	0.04544033855199814
0	6072	0.048240192234516144
0	6722	0.11664213985204697
0	6540	-0.032438214868307114
1	5546	-0.17608711123466492
0	4972	-0.10170572251081467
0	5216	0.04337572306394577
0	5356	0.024939432740211487
0	5298	-0.010342737659811974
0	5308	0.0017860757652670145
0	5334	0.004650275222957134
0	5408	0.013254047371447086
0	5418	0.0017928644083440304
0	5426	0.001435097772628069
0	5452	0.004666746128350496
0	5446	-0.001077534630894661
0	5484	0.006829373072832823
0	5504	0.0035969926975667477
0	5602	0.0176379531621933
0	5584	-0.0032409075647592545
0	5548	-0.006485629361122847
0	5658	0.019831731915473938
0	5662	0.0007210932089947164
0	5742	0.014413202181458473
0	5716	-0.004676427226513624
0	5756	0.007182789966464043
0	5784	0.005015883594751358
0	5806	0.003932925872504711
0	5842	0.006420545745640993
0	5766	-0.013526501134037971
0	5650	-0.020619533956050873
0	5492	-0.02811087667942047
0	5364	-0.02285197377204895
0	5192	-0.030957523733377457
0	5094	-0.01778240129351616
0	5100	0.0010917030740529299
0	5004	-0.017453700304031372
0	5110	0.019296584650874138
0	5138	0.0051048314198851585
0	5108	-0.0054747858084738255
0	5212	0.01900237612426281
0	5252	0.007314040791243315
0	5292	0.007321001496165991
0	5322	0.005494975484907627
0	5334	0.002199386479333043
0	5358	0.0044019464403390884
0	5476	0.021654553711414337
0	5420	-0.010277241468429565
0	5462	0.007711893413215876
0	5460	-0.00036754796747118235
0	5478	0.003310446161776781
0	5484	0.0011039557866752148
0	5500	0.0029470270965248346
0	5566	0.012168590910732746
0	5486	-0.014765778556466103
0	5482	-0.0007393350824713707
0	5488	0.0011108779581263661
0	5542	0.010016199201345444
0	5512	-0.005573652684688568
0	5518	0.0011170132784172893
0	5544	0.004847852047532797
0	5466	-0.014553144574165344
0	5534	0.012689408846199512
0	5560	0.0048467074520885944
0	5562	0.0003719730593729764
0	5556	-0.0011126907775178552
0	5548	-0.0014794176677241921
0	5530	-0.0033175647258758545
0	5612	0.015074453316628933
0	5484	-0.023462703451514244
0	5560	0.013899048790335655
0	5528	-0.00583984237164259
0	5512	-0.0029150270856916904
0	5520	0.0014555688248947263
0	5536	0.0029076458886265755
0	5556	0.003630115417763591
0	5500	-0.010152161121368408
0	5540	0.007250492461025715
0	5534	-0.0010867859236896038
0	5640	0.019191540777683258
0	5580	-0.010851348750293255
0	5628	0.008675744757056236
0	5690	0.011196454986929893
0	5710	0.003607633989304304
0	5666	-0.007929927669465542
0	5610	-0.010081733576953411
0	5478	-0.02374584786593914
0	5354	-0.022308044135570526
0	5344	-0.0018010662170127034
0	5408	0.011538461782038212
0	5400	-0.0014432617463171482
0	5476	0.01372286956757307
0	5576	0.018055321648716927
0	5860	0.05126415565609932
0	6032	0.030991364270448685
0	6724	0.12433519959449768
0	6468	-0.0456773117184639
1	5342	-0.19981543719768524
0	5058	-0.050453610718250275
0	5234	0.03136993944644928
0	5272	0.0067831301130354404
0	5320	0.008582872338593006
0	5320	0.0
0	5368	0.008603383786976337
0	5346	-0.0039468021132051945
0	5394	0.00862099975347519
0	5404	0.001797785167582333
0	5376	-0.00503669586032629
0	5484	0.01944637857377529
0	5434	-0.009005655534565449
0	5492	0.010459495708346367
0	5516	0.0043303584679961205
0	5584	0.012277618981897831
0	5548	-0.00650406489148736
0	5626	0.01410590298473835
0	5678	0.009406203404068947
0	5700	0.003977916669100523
0	5754	0.009750930592417717
0	5812	0.010448065586388111
0	5770	-0.007544639054685831
0	5820	0.00896228663623333
0	5758	-0.011085418052971363
0	5776	0.0032129469327628613
0	5694	-0.014619361609220505
0	5560	-0.02391376718878746
0	5386	-0.031139638274908066
0	5182	-0.03680229187011719
0	5102	-0.01454474963247776
0	5070	-0.005826374050229788
0	5056	-0.0025488531682640314
0	5132	0.013851593248546124
0	5112	-0.0036482589785009623
0	5188	0.013880940154194832
0	5228	0.007311633788049221
0	5280	0.009513238444924355
0	5302	0.004026452545076609
0	5298	-0.0007324934122152627
0	5338	0.007329676765948534
0	5380	0.007697947323322296
0	5406	0.004768425598740578
0	5428	0.004035512451082468
0	5542	0.020919477567076683
0	5474	-0.012476300820708275
0	5508	0.006242350209504366
0	5534	0.0047747306525707245
0	5494	-0.007349879015237093
0	5520	0.004782811272889376
0	5498	-0.004051466006785631
0	5550	0.00959126465022564
0	5506	-0.00812877994030714
0	5452	-0.009992474690079689
0	5492	0.0074186730198562145
0	5478	-0.0026008125860244036
0	5554	0.014144797809422016
0	5540	-0.0026078857481479645
0	5556	0.0029808110557496548
0	5484	-0.013399503193795681
0	5510	0.004829661455005407
0	5592	0.015193626284599304
0	5524	-0.012559101916849613
0	5544	0.003683241317048669
0	5476	-0.01249142736196518
0	5538	0.011363914236426353
0	5564	0.004755343776196241
0	5576	0.0021902872249484062
0	5532	-0.008016616106033325
0	5570	0.006913783960044384
0	5520	-0.009082102216780186
0	5524	0.0007257684483192861
0	5580	0.010151916183531284
0	5570	-0.0018109381198883057
0	5512	-0.010494445450603962
0	5606	0.017011316493153572
0	5560	-0.00831806380301714
0	5638	0.014100123196840286
0	5670	0.005781042855232954
0	5710	0.007218652870506048
0	5616	-0.016944468021392822
0	5646	0.005403977353125811
0	5544	-0.01836293935775757
0	5400	-0.02591823786497116
0	5404	0.0007201756816357374
0	5382	-0.00396305974572897
0	5372	-0.0018024295568466187
0	5384	0.0021652833092957735
0	5462	0.014087559655308723
0	5730	0.04843081906437874
0	5946	0.0389760360121727
0	6560	0.11050320416688919
0	6884	0.057974472641944885
1	5684	-0.21299254894256592
0	4998	-0.12165997177362442
0	5256	0.04588515684008598
0	5374	0.02102137729525566
0	5270	-0.01854824274778366
0	5304	0.006074900273233652
0	5330	0.0046518282033503056
0	5314	-0.002866766881197691
0	5348	0.006099383812397718
0	5434	0.015444107353687286
0	5386	-0.008627506904304028
0	5426	0.007197523955255747
0	5466	0.007201238535344601
0	5524	0.010450576432049274
0	5498	-0.004685753956437111
0	5586	0.01587282493710518
0	5540	-0.008301351219415665
0	5594	0.00975503958761692
0	5618	0.00433614756911993
0	5684	0.011926418170332909
0	5776	0.01661069504916668
0	5792	0.0028822943568229675
0	5810	0.0032350437249988317
0	5852	0.007529130205512047
0	5838	-0.002502532210201025
0	5790	-0.008556962944567204
0	5700	-0.016013095155358315
0	5546	-0.027405060827732086
0	5322	-0.0399567112326622
0	5172	-0.026955148205161095
0	5102	-0.012709402479231358
0	5090	-0.002186455996707082
0	5106	0.0029136468656361103
0	5106	0.0
0	5164	0.01058883685618639
0	5234	0.012787880375981331
0	5176	-0.010600189678370953
0	5332	0.028537629172205925
0	5260	-0.013169767335057259
0	5346	0.01573900133371353
0	5342	-0.0007324397447519004
0	5406	0.011722183786332607
0	5412	0.001099088927730918
0	5444	0.005863741505891085
0	5460	0.0029333040583878756
0	5450	-0.0018337407382205129
0	5518	0.01247981283813715
0	5474	-0.008076258935034275
0	5526	0.009551682509481907
0	5554	0.005146112758666277
0	5498	-0.010300429537892342
0	5530	0.005896009039133787
0	5456	-0.013656496070325375
0	5464	0.0014795999741181731
0	5512	0.008898886851966381
0	5470	-0.007802243810147047
0	5494	0.004467277321964502
0	5526	0.005963992327451706
0	5526	0.0
0	5508	-0.0033509153872728348
0	5518	0.001857746159657836
0	5528	0.0018529727822169662
0	5500	-0.005174325313419104
0	5490	-0.0018434991361573339
0	5530	0.0073566376231610775
0	5558	0.005138117354363203
0	5514	-0.0080582145601511
0	5544	0.0054829237051308155
0	5526	-0.0032855109311640263
0	5512	-0.002551268320530653
0	5552	0.007281995378434658
0	5582	0.005454545374959707
0	5500	-0.014893204905092716
0	5528	0.005082776769995689
0	5570	0.007620291784405708
0	5554	-0.0029010383877903223
0	5688	0.024280933663249016
0	5688	0.0
0	5640	-0.008677521720528603
0	5582	-0.010478139854967594
0	5586	0.0007225085864774883
0	5542	-0.007943385280668736
0	5414	-0.02310636080801487
0	5382	-0.0057780505158007145
0	5390	0.0014452259056270123
0	5428	0.006869870238006115
0	5452	0.004339963663369417
0	5672	0.03979307413101196
0	5902	0.04156526178121567
0	6218	0.056978002190589905
0	7030	0.14578969776630402
0	6432	-0.10640442371368408
1	5400	-0.18264839053153992
0	4832	-0.10058675706386566
0	5158	0.05795624479651451
0	5294	0.024231482297182083
0	5250	-0.00785190798342228
0	5236	-0.0025022639892995358
0	5308	0.012892443686723709
0	5382	0.013267830945551395
0	5428	0.008253983221948147
0	5378	-0.00897838082164526
0	5444	0.011865951120853424
0	5426	-0.0032372549176216125
0	5450	0.004318980500102043
0	5554	0.018729064613580704
0	5526	-0.005042440723627806
0	5598	0.01297889743000269
0	5608	0.0018035999964922667
0	5634	0.004690262489020824
0	5656	0.003967443015426397
0	5696	0.007210498210042715
0	5790	0.016929006204009056
0	5752	-0.006828228011727333
0	5802	0.008964642882347107
0	5770	-0.005723279435187578
0	5850	0.014279084280133247
0	5828	-0.003917471971362829
0	5724	-0.018501825630664825
0	5628	-0.017096655443310738
0	5322	-0.054687127470970154
0	5226	-0.01733310893177986
0	5118	-0.019642315804958344
0	5096	-0.004008064977824688
0	5026	-0.012732519768178463
0	5068	0.007645630743354559
0	5160	0.01677057147026062
0	5190	0.005471657030284405
0	5206	0.0029190334025770426
0	5286	0.014604225754737854
0	5248	-0.006941061932593584
0	5318	0.012800195254385471
0	5312	-0.0010975609766319394
0	5378	0.012082896195352077
0	5408	0.0054938350804150105
0	5438	0.005495243705809116
0	5464	0.004765919875353575
0	5450	-0.0025672370102256536
0	5486	0.006607444491237402
0	5496	0.0018367720767855644
0	5550	0.009926957078278065
0	5460	-0.016555681824684143
0	5516	0.010316241532564163
0	5528	0.0022143488749861717
0	5524	-0.0007391347317025065
0	5548	0.004442415200173855
0	5506	-0.007784889545291662
0	5498	-0.001485994434915483
0	5512	0.0026058147195726633
0	5514	0.0003727495204657316
0	5496	-0.003357123350724578
0	5532	0.006706991698592901
0	5542	0.0018595195142552257
0	5526	-0.0029674323741346598
0	5504	-0.004069401882588863
0	5568	0.01180347241461277
0	5530	-0.00698683550581336
0	5506	-0.004402754362672567
0	5520	0.0025633201003074646
0	5544	0.004385857842862606
0	5500	-0.0080281225964427
0	5520	0.00364356255158782
0	5582	0.011281205341219902
0	5586	0.0007266297470778227
0	5622	0.006531442049890757
0	5594	-0.005073444452136755
0	5652	0.010499384254217148
0	5592	-0.010849124751985073
0	5610	0.0032519542146474123
0	5522	-0.0158865787088871
0	5432	-0.016245096921920776
0	5382	-0.009031465277075768
0	5368	-0.002529998542740941
0	5410	0.0075967684388160706
0	5402	-0.001448033726774156
0	5456	0.009781427681446075
0	5466	0.001812382135540247
0	5750	0.05148409679532051
0	5922	0.031133100390434265
0	6678	0.1365031599998474
0	6246	-0.07745914906263351
1	5302	-0.16850723326206207
0	5108	-0.03467712178826332
0	5280	0.03082437254488468
0	5312	0.005743206944316626
0	5346	0.006109174806624651
0	5292	-0.009715724736452103
0	5330	0.006846764124929905
0	5386	0.010100645013153553
0	5368	-0.0032492538448423147
0	5470	0.018431957811117172
0	5466	-0.0007229525363072753
0	5458	-0.0014463755069300532
0	5446	-0.0021711860317736864
0	5472	0.0047082118690013885
0	5572	0.018124917522072792
0	5540	-0.005800744518637657
0	5558	0.003265128470957279
0	5584	0.0047172666527330875
0	5696	0.020323729142546654
0	5724	0.005075589753687382
0	5728	0.0007238071993924677
0	5836	0.019502094015479088
0	5828	-0.00144054158590734
0	5830	0.0003592341090552509
0	5822	-0.0014332636492326856
0	5822	0.0
0	5762	-0.010703327134251595
0	5612	-0.0267564095556736
0	5422	-0.033954039216041565
0	5222	-0.036010514944791794
0	5144	-0.014130947180092335
0	5056	-0.01595783233642578
0	5054	-0.0003627920523285866
0	5110	0.01017207745462656
0	5050	-0.010912001132965088
0	5152	0.0185837484896183
0	5256	0.018964258953928947
0	5258	0.0003648614219855517
0	5300	0.007668058387935162
0	5322	0.004018264822661877
0	5378	0.010237534530460835
0	5358	-0.0036582243628799915
0	5388	0.005490684416145086
0	5446	0.010619079694151878
0	5404	-0.007690899074077606
0	5520	0.021263334900140762
0	5496	-0.00439984817057848
0	5514	0.003301137126982212
0	5494	-0.003669500118121505
0	5546	0.009552502073347569
0	5486	-0.011034145019948483
0	5452	-0.006261971313506365
0	5562	0.02030719257891178
0	5474	-0.016272390261292458
0	5550	0.01408433262258768
0	5514	-0.006682754959911108
0	5514	0.0
0	5488	-0.004843095783144236
0	5510	0.0041011618450284
0	5534	0.004471549764275551
0	5480	-0.01004153024405241
0	5548	0.01261860877275467
0	5508	-0.007400189992040396
0	5478	-0.005534647032618523
0	5542	0.011780587024986744
0	5474	-0.012479200959205627
0	5606	0.024176711216568947
0	5580	-0.004751924891024828
0	5596	0.0029185363091528416
0	5660	0.011653171852231026
0	5686	0.004724409431219101
0	5642	-0.007980266585946083
0	5598	-0.007966588251292706
0	5404	-0.03508095070719719
0	5376	-0.005064512602984905
0	5376	0.0
0	5352	-0.004345517139881849
0	5358	0.0010873242281377316
0	5376	0.0032650495413690805
0	5560	0.03339989110827446
0	5832	0.04936956986784935
0	6196	0.0659300833940506
0	7032	0.1507447063922882
1	6174	-0.15335670113563538
0	4956	-0.21679799258708954
0	5204	0.04429889842867851
0	5250	0.008231925778090954
0	5208	-0.007527960930019617
0	5298	0.01615837588906288
0	5264	-0.006112030241638422
0	5300	0.00648204842582345
0	5426	0.022711705416440964
0	5384	-0.00757612194865942
0	5402	0.0032493320759385824
0	5500	0.017698900774121284
0	5462	-0.006864575203508139
0	5524	0.01120090577751398
0	5506	-0.0032534825149923563
0	5546	0.0072331856936216354
0	5568	0.003979451488703489
0	5618	0.009049227461218834
0	5662	0.007966588251292706
0	5640	-0.003982813563197851
0	5794	0.027872631326317787
0	5770	-0.004333590157330036
0	5832	0.01116862241178751
0	5824	-0.0014371772995218635
0	5868	0.007882196456193924
0	5810	-0.010358622297644615
0	5772	-0.006769194267690182
0	5656	-0.02063787542283535
0	5486	-0.030276764184236526
0	5284	-0.036128200590610504
0	5104	-0.0325324721634388
0	5020	-0.01528032124042511
0	5054	0.006182492710649967
0	5018	-0.006552125792950392
0	5078	0.010935601778328419
0	5070	-0.0014592326479032636
0	5134	0.011690067127346992
0	5194	0.010968119837343693
0	5268	0.013536090031266212
0	5300	0.005859088618308306
0	5294	-0.001099142711609602
0	5434	0.02566358633339405
0	5416	-0.003300935262814164
0	5478	0.011373085901141167
0	5460	-0.0033027927856892347
0	5484	0.004404962994158268
0	5508	0.0044066342525184155
0	5528	0.003673544153571129
0	5502	-0.004778240341693163
0	5484	-0.0033112582750618458
0	5526	0.0077336677350103855
0	5530	0.0007377532892860472
0	5478	-0.009604965336620808
0	5536	0.010736631229519844
0	5522	-0.0025962144136428833
0	5496	-0.004831875674426556
0	5514	0.003351663937792182
0	5478	-0.006714079529047012
0	5564	0.016056958585977554
0	5524	-0.0074647292494773865
0	5544	0.0037268006708472967
0	5538	-0.0011149928905069828
0	5568	0.005557133350521326
0	5550	-0.003323731478303671
0	5550	0.0
0	5682	0.024224331602454185
0	5626	-0.01023865770548582
0	5724	0.017864087596535683
0	5680	-0.007994864135980606
0	5676	-0.0007249966729432344
0	5670	-0.0010850302642211318
0	5446	-0.04041618853807449
0	5414	-0.0057733249850571156
0	5400	-0.0025258599780499935
0	5352	-0.008664155378937721
0	5462	0.019868267700076103
0	5456	-0.0010838672751560807
0	5666	0.03794723376631737
0	5978	0.056331925094127655
0	6504	0.09469855576753616
0	7166	0.11845824867486954
1	6208	-0.16976384818553925
0	4992	-0.2146235853433609
0	5154	0.028674935922026634
0	5298	0.02554641105234623
0	5294	-0.0007105636759661138
0	5254	-0.0071141463704407215
0	5282	0.004987590480595827
0	5330	0.008560117334127426
0	5310	-0.0035716835409402847
0	5312	0.0003576239396352321
0	5410	0.017547838389873505
0	5424	0.0025087506510317326
0	5462	0.006815328728407621
0	5462	0.0
0	5552	0.0161585696041584
0	5502	-0.008983972482383251
0	5546	0.007911771535873413
0	5656	0.01980055496096611
0	5628	-0.0050408667884767056
0	5698	0.012605798430740833
0	5734	0.006481892894953489
0	5798	0.011503481306135654
0	5820	0.00394524447619915
0	5860	0.007155208382755518
0	5838	-0.003923480398952961
0	5782	-0.009964767843484879
0	5790	0.0014207909116521478
0	5526	-0.046851709485054016
0	5362	-0.029182879254221916
0	5200	-0.029023589566349983
0	5078	-0.022116942331194878
0	5038	-0.007301312871277332
0	5020	-0.003284671576693654
0	5076	0.010227314196527004
0	5034	-0.007680865935981274
0	5136	0.018683142960071564
0	5192	0.010264807380735874
0	5206	0.0025676139630377293
0	5324	0.021657735109329224
0	5260	-0.011745561845600605
0	5328	0.012483630329370499
0	5310	-0.0033061495050787926
0	5404	0.01727750524878502
0	5428	0.004412846639752388
0	5406	-0.00404595211148262
0	5490	0.01546202041208744
0	5474	-0.0029453635215759277
0	5532	0.010681661777198315
0	5516	-0.0029489099979400635
0	5542	0.004795278422534466
0	5538	-0.0007384433993138373
0	5498	-0.007393350824713707
0	5560	0.011480914428830147
0	5474	-0.01595073752105236
0	5468	-0.0011155043030157685
0	5522	0.010062611661851406
0	5526	0.0007465843809768558
0	5554	0.005234688986092806
0	5490	-0.01196291483938694
0	5520	0.00560314767062664
0	5506	-0.002609603339806199
0	5594	0.016359714791178703
0	5578	-0.0029642803128808737
0	5640	0.011447140015661716
0	5690	0.009199632331728935
0	5614	-0.013927406631410122
0	5694	0.014617746695876122
0	5624	-0.01275153923779726
0	5470	-0.027982361614704132
0	5368	-0.018517397344112396
0	5388	0.0036284909583628178
0	5406	0.0032644574530422688
0	5336	-0.012687748298048973
0	5418	0.014868900179862976
0	5406	-0.0021760680247098207
0	5656	0.04533475264906883
0	5916	0.04710087925195694
0	6474	0.10081665217876434
0	7142	0.12001005560159683
1	6018	-0.19998577237129211
0	4964	-0.1870032250881195
0	5236	0.04842327535152435
0	5294	0.010341630317270756
0	5276	-0.0032145536970347166
0	5270	-0.0010727823246270418
0	5286	0.002864132635295391
0	5300	0.0025096500758081675
0	5374	0.013283232226967812
0	5382	0.0014375734608620405
0	5406	0.004315511789172888
0	5462	0.010076412931084633
0	5480	0.003239701734855771
0	5516	0.006483838427811861
0	5532	0.0028827788773924112
0	5570	0.006851043552160263
0	5578	0.0014433659380301833
0	5662	0.01515862438827753
0	5656	-0.0010829672683030367
0	5740	0.01515862438827753
0	5734	-0.0010810032254084945
0	5828	0.01689857244491577
0	5830	0.00035859859781339765
0	5894	0.0114461500197649
0	5866	-0.004991087131202221
0	5788	-0.013866831548511982
0	5788	0.0
0	5610	-0.031548723578453064
0	5462	-0.026279030367732048
0	5232	-0.041085124015808105
0	5118	-0.020598189905285835
0	5038	-0.014533651061356068
0	5054	0.002905428409576416
0	5152	0.017815373837947845
0	5128	-0.004366706125438213
0	5188	0.010926572605967522
0	5222	0.006194808520376682
0	5246	0.004374506417661905
0	5308	0.011304517276585102
0	5312	0.0007296163239516318
0	5358	0.008394160307943821
0	5398	0.007301401812583208
0	5408	0.001826061517931521
0	5468	0.010961173102259636
0	5452	-0.0029238341376185417
0	5502	0.009141435846686363
0	5508	0.0010974270990118384
0	5500	-0.001463860971853137
0	5546	0.008425525389611721
0	5540	-0.0010997202480211854
0	5554	0.0025691529735922813
0	5500	-0.0099205132573843
0	5484	-0.0029453271999955177
0	5474	-0.001844746177084744
0	5472	-0.00036990459193475544
0	5518	0.008528521284461021
0	5540	0.004085675347596407
0	5524	-0.002975969109684229
0	5518	-0.0011165838222950697
0	5610	0.01711500622332096
0	5632	0.0040831477381289005
0	5636	0.0007400372414849699
0	5634	-0.0003686590353026986
0	5638	0.0007346998900175095
0	5630	-0.0014650404918938875
0	5656	0.004746835213154554
0	5492	-0.029856543987989426
0	5396	-0.017448412254452705
0	5336	-0.01089535653591156
0	5386	0.009077925235033035
0	5396	0.001814772142097354
0	5396	0.0
0	5528	0.023949777707457542
0	5770	0.04387608543038368
0	6064	0.05320689082145691
0	6754	0.12441398948431015
0	6668	-0.015390856191515923
1	5662	-0.17879994213581085
0	5062	-0.10653787851333618
0	5280	0.038819968700408936
0	5318	0.006777242757380009
0	5334	0.0028575852047652006
0	5342	0.0014302058843895793
0	5318	-0.004294251557439566
0	5366	0.008596502244472504
0	5388	0.003942558076232672
0	5420	0.005739086773246527
0	5422	0.0003589504340197891
0	5428	0.0010775087866932154
0	5440	0.0021561793982982635
0	5536	0.01726701483130455
0	5564	0.005039113108068705
0	5544	-0.0036009219475090504
0	5570	0.004683728329837322
0	5580	0.0018021698342636228
0	5672	0.01658494397997856
0	5640	-0.005768121220171452
0	5750	0.019810302183032036
0	5742	-0.0014376939507201314
0	5806	0.011473646387457848
0	5830	0.004291845485568047
0	5780	-0.008918272331357002
0	5840	0.010677549988031387
0	5656	-0.03268399462103844
0	5584	-0.012798028066754341
0	5390	-0.034581925719976425
0	5252	-0.02480051852762699
0	5088	-0.029725221917033195
0	5092	0.0007275284151546657
0	5086	-0.001091094221919775
0	5108	0.00400538882240653
0	5154	0.008385591208934784
0	5178	0.0043798815459012985
0	5218	0.007307092659175396
0	5274	0.010236163623631
0	5312	0.006949863396584988
0	5334	0.004025469999760389
0	5410	0.013913467526435852
0	5356	-0.009886609390377998
0	5444	0.016118593513965607
0	5406	-0.006960132159292698
0	5476	0.01283147931098938
0	5524	0.008803462609648705
0	5518	-0.00110056740231812
0	5540	0.004036697093397379
0	5564	0.0044047473929822445
0	5510	-0.009917233139276505
0	5594	0.015439094975590706
0	5480	-0.020973103120923042
0	5484	0.0007370826788246632
0	5478	-0.0011078149545937777
0	5502	0.004440880846232176
0	5540	0.007043471559882164
0	5542	0.0003713974147103727
0	5520	-0.004088256973773241
0	5554	0.0063207210041582584
0	5596	0.007800022140145302
0	5634	0.00704216631129384
0	5610	-0.004432733170688152
0	5670	0.011046604253351688
0	5652	-0.0033021464478224516
0	5692	0.007313773036003113
0	5566	-0.022963088005781174
0	5440	-0.022909091785550117
0	5406	-0.00617351196706295
0	5364	-0.007620015647262335
0	5454	0.016323471441864967
0	5376	-0.014136752113699913
0	5446	0.012689434923231602
0	5608	0.029351016506552696
0	5790	0.032941970974206924
0	6032	0.04370071738958359
0	6682	0.11698642373085022
0	6224	-0.08186173439025879
1	5346	-0.15627409517765045
0	5094	-0.04490484297275543
0	5316	0.03966977447271347
0	5346	0.00536698242649436
0	5326	-0.0035832873545587063
0	5364	0.0068145133554935455
0	5398	0.006101572886109352
0	5374	-0.004309054929763079
0	5376	0.00035936321364715695
0	5386	0.0017985828453674912
0	5448	0.011161651462316513
0	5450	0.0003602089127525687
0	5468	0.0032439057249575853
0	5510	0.007574937772005796
0	5578	0.012273333966732025
0	5606	0.005054699257016182
0	5566	-0.007223780732601881
0	5640	0.013370916247367859
0	5698	0.010483191348612309
0	5720	0.003973222803324461
0	5712	-0.0014423771062865853
0	5762	0.008998308330774307
0	5828	0.011849476024508476
0	5754	-0.013256105594336987
0	5742	-0.002144797705113888
0	5622	-0.021410221233963966
0	5476	-0.026046931743621826
0	5364	-0.02001858875155449
0	5112	-0.04522180184721947
0	5182	0.012680699117481709
0	5082	-0.01822998933494091
0	5106	0.004382227547466755
0	5106	0.0
0	5160	0.009871908463537693
0	5200	0.007320822682231665
0	5174	-0.0047621955163776875
0	5260	0.015770170837640762
0	5254	-0.0011011733440682292
0	5332	0.014325770549476147
0	5362	0.005511396564543247
0	5388	0.004777245689183474
0	5412	0.004411386325955391
0	5452	0.007354022469371557
0	5488	0.006619269493967295
0	5506	0.003310081083327532
0	5500	-0.0011038475204259157
0	5546	0.00846833549439907
0	5542	-0.0007364673656411469
0	5554	0.002210731850937009
0	5480	-0.013644913211464882
0	5524	0.008125176653265953
0	5504	-0.0036975410766899586
0	5512	0.001481371815316379
0	5580	0.012616267427802086
0	5480	-0.018573321402072906
0	5512	0.00595311913639307
0	5458	-0.010052746161818504
0	5518	0.011170964688062668
0	5506	-0.0022320598363876343
0	5500	-0.0011133102234452963
0	5548	0.008888999000191689
0	5552	0.00073862518183887
0	5604	0.009575839154422283
0	5594	-0.0018358954694122076
0	5628	0.006225510034710169
0	5604	-0.004383028019219637
0	5584	-0.0036429872270673513
0	5636	0.00945317093282938
0	5576	-0.010882314294576645
0	5482	-0.01702384650707245
0	5406	-0.013753997161984444
0	5430	0.004342895932495594
0	5406	-0.004342424217611551
0	5448	0.007601351011544466
0	5394	-0.009775524958968163
0	5454	0.01086904015392065
0	5768	0.0568971149623394
0	5876	0.01954350247979164
0	6544	0.12063714116811752
0	6386	-0.028364889323711395
1	5510	-0.15641553699970245
0	5114	-0.07071428745985031
0	5358	0.04367281123995781
0	5302	-0.01003248617053032
0	5354	0.009331371635198593
0	5314	-0.007183392066508532
0	5370	0.010068682953715324
0	5346	-0.004317426588386297
0	5406	0.010804710909724236
0	5462	0.01009045448154211
0	5406	-0.010092757642269135
0	5488	0.014791298657655716
0	5460	-0.005052631720900536
0	5538	0.014087390154600143
0	5516	-0.0039747064001858234
0	5558	0.007593197748064995
0	5578	0.0036168110091239214
0	5604	0.004702024161815643
0	5664	0.010852918960154057
0	5674	0.0018078605644404888
0	5682	0.0014446170534938574
0	5708	0.004687218461185694
0	5726	0.003239585319533944
0	5788	0.011137191206216812
0	5740	-0.008604823611676693
0	5728	-0.0021467674523591995
0	5592	-0.02429034188389778
0	5390	-0.03611614182591438
0	5242	-0.026538198813796043
0	5110	-0.023854846134781837
0	5100	-0.0018211840651929379
0	5112	0.0021908737253397703
0	5114	0.0003651500737760216
0	5152	0.006948168855160475
0	5190	0.006954526994377375
0	5248	0.010625435039401054
0	5214	-0.006231214851140976
0	5282	0.012474317103624344
0	5286	0.000734070606995374
0	5312	0.004774964414536953
0	5414	0.018749769777059555
0	5414	0.0
0	5450	0.006620243191719055
0	5450	0.0
0	5464	0.00257608643732965
0	5500	0.00662633590400219
0	5454	-0.008469999767839909
0	5530	0.014004570432007313
0	5522	-0.001474835560657084
0	5532	0.0018451545620337129
0	5560	0.0051709492690861225
0	5534	-0.0048052044585347176
0	5476	-0.01073080487549305
0	5456	-0.003705991432070732
0	5530	0.01374034397304058
0	5490	-0.0074368794448673725
0	5550	0.011171798221766949
0	5504	-0.008567278273403645
0	5482	-0.00409449590370059
0	5528	0.008548490703105927
0	5512	-0.002965708961710334
0	5486	-0.004807040560990572
0	5504	0.0033202979248017073
0	5514	0.0018401972483843565
0	5502	-0.0022033441346138716
0	5506	0.0007330483058467507
0	5562	0.010246526449918747
0	5470	-0.016797926276922226
0	5510	0.007295099087059498
0	5508	-0.0003642589144874364
0	5552	0.008004171773791313
0	5594	0.0076339575462043285
0	5558	-0.006536263972520828
0	5668	0.019958872348070145
0	5636	-0.0057985722087323666
0	5632	-0.0007240692502819002
0	5612	-0.003617465030401945
0	5494	-0.02132273279130459
0	5430	-0.011567380279302597
0	5366	-0.011573795229196548
0	5346	-0.003620433621108532
0	5392	0.00833776406943798
0	5426	0.006167986895889044
0	5470	0.007984515279531479
0	5520	0.009072544053196907
0	5734	0.03883283957839012
0	5896	0.02935349941253662
0	6508	0.11065973341464996
0	6352	-0.028037719428539276
1	5450	-0.1612749546766281
0	5236	-0.038280364125967026
0	5338	0.018275858834385872
0	5306	-0.005738674663007259
0	5374	0.012209135107696056
0	5346	-0.00503150699660182
0	5344	-0.00035972948535345495
0	5378	0.006121346727013588
0	5386	0.0014419090002775192
0	5452	0.01190175674855709
0	5464	0.0021647103130817413
0	5442	-0.003969686105847359
0	5522	0.014444778673350811
0	5524	0.0003612760338000953
0	5600	0.013731300830841064
0	5574	-0.0046994746662676334
0	5554	-0.0036163313779979944
0	5642	0.015919342637062073
0	5668	0.004702591337263584
0	5718	0.00903396774083376
0	5732	0.0025251309853047132
0	5804	0.012957874685525894
0	5776	-0.0050253658555448055
0	5788	0.00214879191480577
0	5752	-0.006432476919144392
0	5678	-0.013200142420828342
0	5554	-0.022098397836089134
0	5408	-0.026046931743621826
0	5316	-0.016460904851555824
0	5204	-0.02018284797668457
0	5208	0.0007258210680447519
0	5084	-0.022533437237143517
0	5126	0.007639326620846987
0	5196	0.012748598121106625
0	5238	0.007654270157217979
0	5268	0.0054718563333153725
0	5268	0.0
0	5374	0.019352011382579803
0	5342	-0.005842258688062429
0	5364	0.004017628729343414
0	5408	0.008039564825594425
0	5494	0.015719054266810417
0	5442	-0.009501535445451736
0	5436	-0.0010968653950840235
0	5490	0.009877084754407406
0	5480	-0.00183031742926687
0	5488	0.0014650941593572497
0	5506	0.0032977904193103313
0	5510	0.0007334515103138983
0	5578	0.012480728328227997
0	5502	-0.0139610068872571
0	5564	0.01140530500560999
0	5518	-0.008474471978843212
0	5522	0.0007380800088867545
0	5614	0.017003659158945084
0	5564	-0.009248982183635235
0	5564	0.0
0	5570	0.0011105900630354881
0	5504	-0.01220429316163063
0	5564	0.011081969365477562
0	5534	-0.005528730805963278
0	5576	0.007724753115326166
0	5470	-0.01943717710673809
0	5538	0.012442970648407936
0	5526	-0.002191247185692191
0	5540	0.002551981480792165
0	5598	0.01055505033582449
0	5508	-0.016345804557204247
0	5528	0.0036294565070420504
0	5494	-0.006163142155855894
0	5558	0.01159210316836834
0	5500	-0.010495837777853012
0	5538	0.006876334082335234
0	5532	-0.0010851087281480432
0	5552	0.0036149369552731514
0	5528	-0.004336304496973753
0	5550	0.003973796963691711
0	5476	-0.013361419551074505
0	5534	0.010474355891346931
0	5544	0.0018056625267490745
0	5502	-0.007585335057228804
0	5598	0.01733790896832943
0	5594	-0.0007222650456242263
0	5646	0.009385152719914913
0	5664	0.0032462850213050842
0	5640	-0.004327078815549612
0	5642	0.00036042529973201454
0	5514	-0.02305641584098339
0	5414	-0.01801888272166252
0	5338	-0.013701758347451687
0	5342	0.0007221259293146431
0	5406	0.011567380279302597
0	5380	-0.004704066086560488
0	5450	0.012671670876443386
0	5560	0.01992320455610752
0	5856	0.053600531071424484
0	6174	0.05747472494840622
0	6830	0.11815419793128967
0	6228	-0.10757427662611008
1	5380	-0.15090399980545044
0	5246	-0.02386181615293026
0	5316	0.012488255277276039
0	5280	-0.006429566536098719
0	5318	0.006797204725444317
0	5380	0.011104345321655273
0	5384	0.0007171457982622087
0	5400	0.002871053759008646
0	5458	0.010416915640234947
0	5406	-0.009340310469269753
0	5496	0.016178321093320847
0	5482	-0.002517351880669594
0	5532	0.008991619572043419
0	5510	-0.003957878798246384
0	5536	0.004679850302636623
0	5640	0.01873176358640194
0	5636	-0.0007205563015304506
0	5662	0.004683728329837322
0	5684	0.003962678834795952
0	5724	0.007197523955255747
0	5774	0.008980208076536655
0	5826	0.009315100498497486
0	5884	0.01035997923463583
0	5858	-0.004630948882550001
0	5824	-0.006038718856871128
0	5682	-0.025164812803268433
0	5548	-0.023729974403977394
0	5388	-0.028385905548930168
0	5216	-0.03065735101699829
0	5162	-0.009718173183500767
0	5070	-0.0166634451597929
0	5070	0.0
0	5162	0.016712484881281853
0	5152	-0.001818269956856966
0	5232	0.014557452872395515
0	5280	0.008739030919969082
0	5298	0.0032791264820843935
0	5368	0.012758822180330753
0	5364	-0.00072921731043607
0	5448	0.015322315506637096
0	5398	-0.009118097834289074
0	5482	0.015327534638345242
0	5480	-0.000364941282896325
0	5540	0.010951702482998371
0	5494	-0.008394773118197918
0	5500	0.0010952502489089966
0	5594	0.01717355102300644
0	5560	-0.006213298998773098
0	5588	0.005120015703141689
0	5578	-0.0018296476919203997
0	5574	-0.000732511340174824
0	5556	-0.0033003301359713078
0	5512	-0.008080808445811272
0	5532	0.0036814783234149218
0	5596	0.011804343201220036
0	5526	-0.01292912382632494
0	5538	0.002218552166596055
0	5554	0.002958251629024744
0	5572	0.0033246318344026804
0	5586	0.002580169588327408
0	5538	-0.008823312819004059
0	5586	0.0087980842217803
0	5508	-0.014251955784857273
0	5586	0.014221983961760998
0	5536	-0.009092672728002071
0	5532	-0.0007260757847689092
0	5528	-0.0007249703630805016
0	5526	-0.0003619822091422975
0	5558	0.005786200053989887
0	5550	-0.0014448604779317975
0	5544	-0.0010829804232344031
0	5552	0.0014427065616473556
0	5546	-0.001081574708223343
0	5586	0.0072076404467225075
0	5500	-0.015492144972085953
0	5578	0.01405050978064537
0	5530	-0.008642420172691345
0	5586	0.010086697526276112
0	5596	0.0018009148770943284
0	5602	0.001080497051589191
0	5634	0.005761820822954178
0	5610	-0.0043198103085160255
0	5740	0.023391392081975937
0	5662	-0.01401566807180643
0	5646	-0.0028727722819894552
0	5570	-0.013641584664583206
0	5450	-0.021533677354454994
0	5426	-0.0043090032413601875
0	5362	-0.01149948500096798
0	5380	0.0032383031211793423
0	5426	0.00828589964658022
0	5404	-0.0039654881693422794
0	5668	0.047637954354286194
0	5844	0.031728100031614304
0	6252	0.0734376460313797
0	6902	0.11649580299854279
1	6038	-0.15359272062778473
0	4906	-0.2006285935640335
0	5272	0.06510601937770844
0	5262	-0.001781874685548246
0	5270	0.0014279424212872982
0	5302	0.0057210964150726795
0	5282	-0.003581020515412092
0	5338	0.010042681358754635
0	5364	0.004669596441090107
0	5396	0.00575187848880887
0	5384	-0.002159308874979615
0	5458	0.013327409513294697
0	5416	-0.007570022251456976
0	5478	0.011186893098056316
0	5504	0.004694778937846422
0	5548	0.007951232604682446
0	5586	0.006869539152830839
0	5576	-0.001809452660381794
0	5614	0.006879488471895456
0	5630	0.0028971859719604254
0	5684	0.009774463251233101
0	5756	0.01301424391567707
0	5832	0.01370999775826931
0	5820	-0.002158635761588812
0	5764	-0.0100471256300807
0	5788	0.004297224804759026
0	5710	-0.013934046030044556
0	5496	-0.038219746202230453
0	5428	-0.01216980442404747
0	5244	-0.03309273347258568
0	5128	-0.0210722628980875
0	5000	-0.023380989208817482
0	5022	0.004016308579593897
0	5028	0.001097025815397501
0	5060	0.0058591607958078384
0	5106	0.00843335222452879
0	5200	0.017254037782549858
0	5210	0.0018364574061706662
0	5224	0.0025730563793331385
0	5244	0.003678950248286128
0	5316	0.013256575912237167
0	5324	0.0014735679142177105
0	5340	0.0029495626222342253
0	5394	0.00995942484587431
0	5430	0.006643046624958515
0	5462	0.005907619372010231
0	5472	0.001847108593210578
0	5486	0.002587768482044339
0	5458	-0.005178408231586218
0	5482	0.004442908801138401
0	5490	0.0014823233941569924
0	5470	-0.0037102538626641035
0	5490	0.003716827370226383
0	5546	0.010429211892187595
0	5526	-0.0037310649640858173
0	5508	-0.0033629355020821095
0	5544	0.006737619638442993
0	5442	-0.019109711050987244
0	5532	0.016867199912667274
0	5500	-0.005993332713842392
0	5526	0.004861812572926283
0	5474	-0.009699561633169651
0	5506	0.005951421335339546
0	5516	0.0018542555626481771
0	5472	-0.008134189993143082
0	5502	0.005531993228942156
0	5476	-0.004782752599567175
0	5544	0.012487604282796383
0	5544	0.0
0	5560	0.002926543587818742
0	5510	-0.009127862751483917
0	5514	0.000729367951862514
0	5546	0.005828213412314653
0	5552	0.0010914250742644072
0	5484	-0.012357644736766815
0	5564	0.014533651061356068
0	5508	-0.010167275555431843
0	5508	0.0
0	5544	0.00653381273150444
0	5512	-0.005804813466966152
0	5586	0.0134211964905262
0	5604	0.0032627214677631855
0	5592	-0.002173387911170721
0	5604	0.0021720505319535732
0	5718	0.020627262070775032
0	5696	-0.003976095002144575
0	5630	-0.011914790607988834
0	5514	-0.020930316299200058
0	5390	-0.02236410230398178
0	5398	0.0014440780505537987
0	5372	-0.004696135874837637
0	5408	0.006508376449346542
0	5398	-0.001808601664379239
0	5422	0.004343472421169281
0	5722	0.054324205964803696
0	5834	0.020250478759407997
0	6340	0.09130607545375824
0	6942	0.1080673485994339
1	5942	-0.17802463471889496
0	5014	-0.16481760144233704
0	5332	0.05666159838438034
0	5256	-0.013556096702814102
0	5268	0.0021437248215079308
0	5300	0.005726078525185585
0	5344	0.00788521021604538
0	5344	0.0
0	5390	0.008261394686996937
0	5394	0.0007188900490291417
0	5430	0.006474431604146957
0	5470	0.007198733277618885
0	5426	-0.007920602336525917
0	5430	0.0007207466987892985
0	5520	0.016233766451478004
0	5534	0.002526346128433943
0	5620	0.015525520779192448
0	5626	0.0010838150046765804
0	5648	0.0039756642654538155
0	5708	0.010841544717550278
0	5738	0.005414445884525776
0	5784	0.008284805342555046
0	5794	0.001796880504116416
0	5796	0.00035847004619427025
0	5830	0.006079896818846464
0	5772	-0.01034495048224926
0	5664	-0.019223010167479515
0	5480	-0.0327615886926651
0	5388	-0.01641528308391571
0	5176	-0.038041919469833374
0	5114	-0.011244242079555988
0	5036	-0.014217144809663296
0	5010	-0.004738415125757456
0	5042	0.0058433255180716515
0	5114	0.01316463015973568
0	5198	0.015373164787888527
0	5166	-0.005860090721398592
0	5242	0.013932853005826473
0	5270	0.005136358086019754
0	5312	0.00771019421517849
0	5362	0.009183410555124283
0	5394	0.005879830569028854
0	5436	0.0077208722941577435
0	5398	-0.006985122803598642
0	5486	0.016179244965314865
0	5514	0.005149015225470066
0	5518	0.0007356637506745756
0	5500	-0.0033125581685453653
0	5490	-0.0018417336978018284
0	5492	0.0003687043790705502
0	5534	0.007753082551062107
0	5450	-0.015525654889643192
0	5488	0.0070379930548369884
0	5456	-0.005937948357313871
0	5492	0.006694270297884941
0	5518	0.004844901151955128
0	5516	-0.0003732736222445965
0	5512	-0.0007472352008335292
0	5490	-0.004108975175768137
0	5534	0.008212734945118427
0	5462	-0.013409152626991272
0	5562	0.01858367584645748
0	5534	-0.005186529830098152
0	5526	-0.0014770866837352514
0	5582	0.01030889805406332
0	5554	-0.005139689426869154
0	5568	0.0025642591062933207
0	5492	-0.013886181637644768
0	5506	0.002554092090576887
0	5528	0.004007821436971426
0	5504	-0.004366441164165735
0	5572	0.01236093882471323
0	5508	-0.011621290817856789
0	5532	0.004356085788458586
0	5494	-0.0068915486335754395
0	5502	0.0014507821761071682
0	5494	-0.0014508874155580997
0	5524	0.0054416172206401825
0	5538	0.0025390530936419964
0	5550	0.0021756996866315603
0	5606	0.010149708017706871
0	5584	-0.003985651768743992
0	5644	0.01086117047816515
0	5664	0.0036169851664453745
0	5676	0.0021674735471606255
0	5642	-0.00613437918946147
0	5390	-0.045432694256305695
0	5354	-0.006495303008705378
0	5342	-0.0021671601571142673
0	5398	0.010122433304786682
0	5460	0.011216170154511929
0	5450	-0.0018090816447511315
0	5724	0.049602337181568146
0	5810	0.015550787560641766
0	6340	0.09567247331142426
0	6950	0.10961365699768066
1	5706	-0.22168628871440887
0	5020	-0.12214809656143188
0	5230	0.037497323006391525
0	5304	0.013235082849860191
0	5290	-0.0025072831194847822
0	5282	-0.0014345658710226417
0	5310	0.005029699299484491
0	5320	0.0017984532751142979
0	5348	0.005042077507823706
0	5390	0.007569749839603901
0	5440	0.009017675183713436
0	5420	-0.0036082412116229534
0	5544	0.022385096177458763
0	5474	-0.012636290863156319
0	5576	0.01842130534350872
0	5558	-0.0032514058984816074
0	5590	0.005781182087957859
0	5604	0.002530090045183897
0	5608	0.0007231442723423243
0	5724	0.020979780703783035
0	5732	0.001446166425012052
0	5806	0.013349529355764389
0	5818	0.0021589205134660006
0	5792	-0.004664346110075712
0	5796	0.0007159049855545163
0	5710	-0.015361166559159756
0	5730	0.0035668425261974335
0	5528	-0.0360238254070282
0	5382	-0.026080742478370667
0	5226	-0.028026971966028214
0	5100	-0.022873325273394585
0	5090	-0.0018220247002318501
0	5082	-0.0014570002676919103
0	5106	0.004374931566417217
0	5152	0.008395385928452015
0	5162	0.0018266174010932446
0	5260	0.0179139394313097
0	5246	-0.002559914253652096
0	5320	0.013537080027163029
0	5366	0.008416378870606422
0	5394	0.005123763345181942
0	5434	0.007321715820580721
0	5430	-0.0007321091252379119
0	5434	0.0007326186168938875
0	5440	0.0010991963790729642
0	5490	0.009167583659291267
0	5524	0.006236548535525799
0	5460	-0.011744124814867973
0	5468	0.0014693097909912467
0	5534	0.01213220413774252
0	5534	0.0
0	5558	0.004422224126756191
0	5552	-0.0011072425404563546
0	5570	0.003327172016724944
0	5554	-0.0029615368694067
0	5524	-0.005561185535043478
0	5590	0.012248684652149677
0	5500	-0.016717230901122093
0	5524	0.004458701238036156
0	5504	-0.0037123197689652443
0	5556	0.009635458700358868
0	5550	-0.0011086611775681376
0	5554	0.0007370192324742675
0	5594	0.007348888553678989
0	5504	-0.016485730186104774
0	5562	0.010601352900266647
0	5564	0.00036467512836679816
0	5550	-0.002548018004745245
0	5512	-0.006903317291289568
0	5536	0.0043549262918531895
0	5588	0.009425981901586056
0	5540	-0.008690719492733479
0	5544	0.0007237636018544436
0	5564	0.0036163313779979944
0	5560	-0.0007227000314742327
0	5572	0.0021665343083441257
0	5568	-0.0007218219107016921
0	5652	0.015154249034821987
0	5638	-0.0025227952282875776
0	5608	-0.005400475114583969
0	5700	0.016554107889533043
0	5530	-0.03055868297815323
0	5412	-0.021214881911873817
0	5378	-0.006117895245552063
0	5414	0.00648523960262537
0	5470	0.010096639394760132
0	5428	-0.007574937772005796
0	5566	0.024913344532251358
0	5778	0.038257479667663574
0	5952	0.031352102756500244
0	6616	0.11932145059108734
0	6592	-0.004285612143576145
1	5676	-0.16255930066108704
0	5136	-0.09576279670000076
0	5230	0.016715073958039284
0	5332	0.01816713809967041
0	5282	-0.00891763623803854
0	5362	0.014292179606854916
0	5392	0.005365574266761541
0	5344	-0.008591065183281898
0	5422	0.013976491056382656
0	5412	-0.001793636241927743
0	5446	0.0061030336655676365
0	5434	-0.0021552755497395992
0	5496	0.011144264601171017
0	5548	0.009350388310849667
0	5510	-0.006833958439528942
0	5574	0.011513829231262207
0	5544	-0.005399633198976517
0	5626	0.014767325483262539
0	5630	0.0007202794658951461
0	5662	0.005764657631516457
0	5712	0.009000143967568874
0	5780	0.012218202464282513
0	5854	0.01326434314250946
0	5748	-0.018950454890727997
0	5830	0.01463553961366415
0	5736	-0.01673729531466961
0	5690	-0.008182335644960403
0	5520	-0.030254853889346123
0	5330	-0.03390112891793251
0	5228	-0.01833982765674591
0	5130	-0.01776585355401039
0	5098	-0.0058202981017529964
0	5038	-0.010915573686361313
0	5070	0.005828425753861666
0	5152	0.01495913602411747
0	5152	0.0
0	5268	0.02120554819703102
0	5194	-0.013537906110286713
0	5296	0.018677441403269768
0	5334	0.006963618565350771
0	5370	0.00660025654360652
0	5364	-0.00110055401455611
0	5386	0.004037092439830303
0	5446	0.011017665266990662
0	5418	-0.005144789349287748
0	5480	0.011398455128073692
0	5512	0.00588646437972784
0	5486	-0.004783691372722387
0	5552	0.01215365156531334
0	5506	-0.008474783971905708
0	5510	0.0007376444991678
0	5526	0.0029542462434619665
0	5526	0.0
0	5504	-0.004076691344380379
0	5510	0.0011135031236335635
0	5528	0.0033471351489424706
0	5474	-0.010054368525743484
0	5552	0.01454247161746025
0	5530	-0.004100907128304243
0	5510	-0.0037234702613204718
0	5508	-0.000371696543879807
0	5496	-0.0022249689791351557
0	5532	0.006658528465777636
0	5516	-0.0029503600671887398
0	5526	0.0018389340257272124
0	5510	-0.0029355643782764673
0	5544	0.006224445998668671
0	5578	0.006213980261236429
0	5556	-0.0040114265866577625
0	5558	0.000364099774742499
0	5480	-0.014180614612996578
0	5522	0.007630628999322653
0	5504	-0.00326714338734746
0	5508	0.0007255139062181115
0	5530	0.003988831304013729
0	5566	0.006522763054817915
0	5606	0.007243752479553223
0	5556	-0.009049555286765099
0	5650	0.017005981877446175
0	5688	0.006870698183774948
0	5642	-0.008308048360049725
0	5656	0.0025265284348279238
0	5578	-0.014065374620258808
0	5504	-0.013339903205633163
0	5422	-0.014782055281102657
0	5406	-0.0028858291916549206
0	5450	0.007941856049001217
0	5490	0.007220911793410778
0	5456	-0.006140065845102072
0	5608	0.027461940422654152
0	5838	0.041529737412929535
0	5976	0.024868449196219444
0	6708	0.13153165578842163
0	6462	-0.04389408230781555
0	5624	-0.14868877828121185
0	5060	-0.10001417994499207
0	5208	0.026314852759242058
0	5306	0.01745946891605854
0	5294	-0.0021413532085716724
0	5370	0.01358307059854269
0	5352	-0.003220650367438793
0	5374	0.003939358051866293
0	5348	-0.004659720696508884
0	5412	0.011480782181024551
0	5446	0.0061026681214571
0	5412	-0.006105737295001745
0	5514	0.01833411306142807
0	5470	-0.007913194596767426
0	5498	0.005038266535848379
0	5550	0.009365319274365902
0	5564	0.002523522824048996
0	5642	0.014066219329833984
0	5606	-0.006492647808045149
0	5678	0.01298311073333025
0	5712	0.006124507635831833
0	5746	0.006113861687481403
0	5774	0.0050247046165168285
0	5824	0.008955330587923527
0	5804	-0.003575003705918789
0	5742	-0.011059579439461231
0	5678	-0.011407250538468361
0	5534	-0.02569073624908924
0	5372	-0.028978249058127403
0	5256	-0.02091647870838642
0	5140	-0.021069202572107315
0	5118	-0.004007626790553331
0	5068	-0.009105035103857517
0	5080	0.002187067177146673
0	5090	0.0018250617431476712
0	5182	0.01681143045425415
0	5228	0.008415352553129196
0	5218	-0.0018308088183403015
0	5298	0.0146604273468256
0	5254	-0.00806569866836071
0	5374	0.022018618881702423
0	5356	-0.0033042479772120714
0	5348	-0.001469057984650135
0	5422	0.013602607883512974
0	5414	-0.0014709848910570145
0	5444	0.005519034340977669
0	5526	0.015095172449946404
0	5470	-0.010311303660273552
0	5480	0.0018432500073686242
0	5516	0.006640841253101826
0	5514	-0.00036930348142050207
0	5470	-0.008134590461850166
0	5510	0.00740768201649189
0	5480	-0.005564830265939236
0	5500	0.003717794781550765
0	5546	0.008567065000534058
0	5514	-0.005966958124190569
0	5522	0.0014932616613805294
0	5496	-0.004853462800383568
0	5528	0.005968887358903885
0	5496	-0.005958809517323971
0	5554	0.010776529088616371
0	5542	-0.0022236222866922617
0	5488	-0.009977090172469616
0	5480	-0.0014743825886398554
0	5538	0.01066372450441122
0	5548	0.001834570663049817
0	5586	0.006957753095775843
0	5532	-0.009865175932645798
0	5560	0.005107997450977564
0	5570	0.0018208966357633471
0	5514	-0.01018490456044674
0	5534	0.003633985063061118
0	5476	-0.01052669808268547
0	5570	0.017054937779903412
0	5554	-0.002900232095271349
0	5548	-0.0010868646204471588
0	5616	0.012316162697970867
0	5594	-0.003981131594628096
0	5620	0.00470174103975296
0	5630	0.0018072288949042559
0	5524	-0.019143247976899147
0	5466	-0.010471204295754433
0	5408	-0.010473977774381638
0	5348	-0.010839846916496754
0	5396	0.008679823018610477
0	5426	0.005429798737168312
0	5462	0.00651921983808279
0	5686	0.040578730404376984
0	5912	0.040894120931625366
0	6304	0.07076749205589294
0	6808	0.09054651111364365
1	5912	-0.15977175533771515
0	5012	-0.16013284027576447
0	5202	0.033901531249284744
0	5394	0.03431512787938118
0	5276	-0.021107614040374756
0	5364	0.015766842290759087
0	5332	-0.005741009023040533
0	5368	0.006466369144618511
0	5400	0.005754498764872551
0	5394	-0.0010800691088661551
0	5416	0.003963106777518988
0	5476	0.010816138237714767
0	5470	-0.0010816138237714767
0	5566	0.017316225916147232
0	5576	0.0018036433029919863
0	5568	-0.0014426718698814511
0	5642	0.013348566368222237
0	5630	-0.0021640078630298376
0	5684	0.009737449698150158
0	5630	-0.009734289720654488
0	5666	0.006485396064817905
0	5746	0.014394702389836311
0	5806	0.010774184949696064
0	5802	-0.0007163152913562953
0	5810	0.0014291669940575957
0	5786	-0.004277718719094992
0	5638	-0.026328586041927338
0	5504	-0.023844830691814423
0	5286	-0.03888644278049469
0	5164	-0.0218946672976017
0	5100	-0.011599806137382984
0	5066	-0.006192777771502733
0	5134	0.012381494976580143
0	5094	-0.007286240346729755
0	5130	0.006569582968950272
0	5188	0.010593736544251442
0	5198	0.0018284654943272471
0	5294	0.01756761595606804
0	5280	-0.00256310123950243
0	5356	0.013924174010753632
0	5386	0.0054976604878902435
0	5372	-0.0025660451501607895
0	5424	0.009537084959447384
