0	5152	0.00686856871470809
0	5166	0.002671109978109598
0	5208	0.00801271852105856
0	5236	0.005339095834642649
0	5268	0.006099187768995762
0	5288	0.0038091852329671383
0	5482	0.036921437829732895
0	6586	0.20968130230903625
0	8191	0.3021346926689148
1	6016	-0.4019119441509247
0	2158	-0.7092390060424805
0	3552	0.2611676752567291
0	5290	0.3290441036224365
0	5684	0.07456895709037781
0	5716	0.0060405852273106575
0	5762	0.008657845668494701
0	5732	-0.005628060549497604
0	5726	-0.0011222154134884477
0	5694	-0.005967885255813599
0	5670	-0.004466251935809851
0	5648	-0.0040857004933059216
0	5644	-0.0007414593128487468
0	5620	-0.004443648736923933
0	5656	0.006660951301455498
0	5656	0.0
0	5666	0.0018448254559189081
0	5710	0.008100196719169617
0	5730	0.0036695676390081644
0	5814	0.01535396371036768
0	5844	0.005459939129650593
0	5916	0.013046234846115112
0	5948	0.0057716937735676765
0	5904	-0.00789894163608551
0	5854	-0.00893883965909481
0	5810	-0.007837316952645779
0	5672	-0.024501824751496315
0	5402	-0.047829657793045044
0	5112	-0.051396872848272324
0	4852	-0.04648473858833313
0	4666	-0.03392963856458664
0	4522	-0.026485519483685493
0	4486	-0.006526784040033817
0	4488	0.00036056392127647996
0	4526	0.006883891765028238
0	4624	0.017878210172057152
0	4672	0.008815211243927479
0	4728	0.01035349816083908
0	4820	0.017115216702222824
0	4900	0.014966885559260845
0	4930	0.005640511400997639
0	5000	0.013222516514360905
0	5030	0.0056900084018707275
0	5064	0.00647380668669939
0	5092	0.005350250285118818
0	5152	0.011506155133247375
0	5134	-0.003463003784418106
0	5152	0.0034748585894703865
0	5162	0.001937433728016913
0	5182	0.003889133920893073
0	5182	0.0
0	5158	-0.004706436302512884
0	5170	0.0023649358190596104
0	5182	0.0023770849220454693
0	5182	0.0
0	5194	0.002399168210104108
0	5206	0.0024090579245239496
0	5222	0.0032221253495663404
0	5252	0.006048793904483318
0	5282	0.006043107248842716
0	5270	-0.002410284010693431
0	5282	0.002400576137006283
0	5294	0.0023884717375040054
0	5308	0.0027716916520148516
0	5332	0.004725898150354624
0	5426	0.018412359058856964
0	5362	-0.012470771558582783
0	5484	0.023666342720389366
0	5552	0.013126906007528305
0	5438	-0.02190369926393032
0	5452	0.002680691424757242
0	5374	-0.014885686337947845
0	5230	-0.027416039258241653
0	5160	-0.013310345821082592
0	5154	-0.0011401930823922157
0	5164	0.0018995756981894374
0	5218	0.010256929323077202
0	5182	-0.006834318395704031
0	5202	0.003796122968196869
0	5256	0.010246938094496727
0	5250	-0.0011380159994587302
0	5290	0.007583513390272856
0	5464	0.032960787415504456
0	6212	0.14143095910549164
0	8164	0.36670130491256714
1	6690	-0.27182868123054504
0	2208	-0.819019079208374
0	2372	0.030526014044880867
0	4478	0.3990550935268402
0	5574	0.2086956650018692
0	5736	0.030790284276008606
0	5744	0.0015160321490839124
0	5746	0.00037790514761582017
0	5752	0.001130497083067894
0	5718	-0.0063883354887366295
0	5702	-0.0029990251641720533
0	5632	-0.013098148629069328
0	5614	-0.0033624330535531044
0	5628	0.0026131102349609137
0	5648	0.0037312505301088095
0	5636	-0.0022358305286616087
0	5654	0.0033499174751341343
0	5700	0.008546055294573307
0	5762	0.011485167779028416
0	5784	0.004060288891196251
0	5824	0.007353842258453369
0	5908	0.015380859375
0	5952	0.008022853173315525
0	5958	0.0010889292461797595
0	5920	-0.006865153554826975
0	5868	-0.00935700535774231
0	5814	-0.009681005030870438
0	5654	-0.02859491854906082
0	5472	-0.032489944249391556
0	5166	-0.05486755073070526
0	4852	-0.05732925981283188
0	4614	-0.04394495114684105
0	4498	-0.02110600285232067
0	4446	-0.009340870194137096
0	4484	0.0068273283541202545
0	4504	0.003616941859945655
0	4626	0.022228429093956947
0	4700	0.013574992306530476
0	4770	0.012923872098326683
0	4868	0.018203431740403175
0	4922	0.010083531960844994
0	4970	0.009006868116557598
0	5016	0.008667469955980778
0	5084	0.012861087918281555
0	5124	0.007591381203383207
0	5132	0.0015233259182423353
0	5152	0.003820536658167839
0	5158	0.0011498364619910717
0	5174	0.0030768834985792637
0	5182	0.0015442623989656568
0	5158	-0.004650802351534367
0	5198	0.007784827146679163
0	5172	-0.005083553027361631
0	5190	0.003537365235388279
0	5176	-0.002765195444226265
0	5204	0.005557613912969828
0	5220	0.003189792623743415
0	5240	0.004003042355179787
0	5240	0.0
0	5224	-0.0032162959687411785
0	5252	0.005626331083476543
0	5290	0.007615332491695881
0	5284	-0.0011970154009759426
0	5284	0.0
0	5330	0.009079067036509514
0	5366	0.007066028192639351
0	5388	0.004293912090361118
0	5342	-0.00893388967961073
0	5450	0.020888401195406914
0	5542	0.01771615631878376
0	5490	-0.009970344603061676
0	5454	-0.006877579260617495
0	5388	-0.012570152059197426
0	5220	-0.03192136436700821
0	5152	-0.012909431010484695
0	5152	0.0
0	5118	-0.0064527555368840694
0	5152	0.006454144138842821
0	5176	0.004556039348244667
0	5172	-0.0007593302871100605
0	5246	0.014048499055206776
0	5244	-0.0003794778313022107
0	5276	0.006069879978895187
0	5486	0.039807409048080444
0	6632	0.21682918071746826
0	8191	0.2922869324684143
1	6044	-0.39515095949172974
0	1916	-0.7559285759925842
0	2976	0.19812960922718048
0	4894	0.3636317551136017
0	5582	0.13070984184741974
0	5728	0.02767999842762947
0	5730	0.0003781314007937908
0	5708	-0.004147787112742662
0	5722	0.002632486168295145
0	5700	-0.004126624669879675
0	5640	-0.01123097725212574
0	5624	-0.0029902257956564426
0	5628	0.0007462454959750175
0	5618	-0.0018635507440194488
0	5628	0.00186267145909369
0	5620	-0.001488861395046115
0	5622	0.00037183245876803994
0	5650	0.005198115948587656
0	5702	0.009628024883568287
0	5726	0.00442867074161768
0	5780	0.00992945209145546
0	5830	0.009156783111393452
0	5892	0.0113076101988554
0	5858	-0.006174072623252869
0	5846	-0.0021700735669583082
0	5792	-0.009730138815939426
0	5712	-0.014367730356752872
0	5532	-0.03224323317408562
0	5332	-0.035815976560115814
0	5062	-0.04872971773147583
0	4732	-0.06070118770003319
0	4588	-0.026702599599957466
0	4484	-0.018971871584653854
0	4416	-0.012291969731450081
0	4442	0.004713446833193302
0	4472	0.005476317834109068
0	4562	0.016555478796362877
0	4642	0.01482213381677866
0	4664	0.004103099927306175
0	4768	0.019524894654750824
0	4862	0.01775103248655796
0	4954	0.017458852380514145
0	4986	0.006098490208387375
0	5000	0.0026790157426148653
0	5038	0.007300391793251038
0	5042	0.0007713767699897289
0	5068	0.005032647866755724
0	5080	0.002331092953681946
0	5102	0.004289502743631601
0	5106	0.000782962772063911
0	5108	0.0003930714738089591
0	5116	0.001579238218255341
0	5130	0.002776712877675891
0	5134	0.0007973634055815637
0	5152	0.003605480305850506
0	5166	0.002817317144945264
0	5180	0.0028291973285377026
0	5196	0.0032449974678456783
0	5202	0.001219644327647984
0	5208	0.0012207196559756994
0	5226	0.0036585365887731314
0	5266	0.00810296181589365
0	5252	-0.0028231118340045214
0	5288	0.00722214812412858
0	5354	0.01316384319216013
0	5342	-0.0023790013510733843
0	5328	-0.002759635681286454
0	5454	0.024712344631552696
0	5526	0.01404677052050829
0	5432	-0.018236609175801277
0	5454	0.004249893594533205
0	5332	-0.02347809262573719
0	5152	-0.03455602005124092
0	5090	-0.011889997869729996
0	5140	0.009583194740116596
0	5152	0.0022984689567238092
0	5142	-0.0019140465883538127
0	5204	0.011861488223075867
0	5182	-0.004205589648336172
0	5222	0.0076426309533417225
0	5266	0.0084006879478693
0	5302	0.006866385694593191
0	5478	0.03352934494614601
0	6958	0.28132960200309753
0	8191	0.231700137257576
1	5822	-0.4368564784526825
0	1926	-0.7155582308769226
0	3190	0.23687119781970978
0	5070	0.3567791283130646
0	5760	0.13105495274066925
0	5800	0.007570930290967226
0	5784	-0.0030174446292221546
0	5760	-0.004511476028710604
0	5762	0.0003747634182218462
0	5730	-0.005978514906018972
0	5696	-0.006337332539260387
0	5676	-0.003719661384820938
0	5696	0.003711654106155038
0	5648	-0.008894653990864754
0	5698	0.009258287027478218
0	5714	0.0029577959794551134
0	5716	0.0003691330784931779
0	5750	0.0062604728154838085
0	5802	0.009539825841784477
0	5870	0.012421074323356152
0	5942	0.013093528337776661
0	5948	0.0010859270114451647
0	5986	0.00684425700455904
0	5948	-0.00681227445602417
0	5908	-0.007138140499591827
0	5830	-0.01386280544102192
0	5664	-0.029404643923044205
0	5400	-0.046664271503686905
0	5070	-0.058357156813144684
0	4770	-0.05364903062582016
0	4624	-0.026652710512280464
0	4530	-0.01728598028421402
0	4514	-0.002896067453548312
0	4508	-0.0010774184484034777
0	4576	0.01225195825099945
0	4650	0.013428502716124058
0	4742	0.01681184023618698
0	4818	0.013976754620671272
0	4902	0.015537715516984463
0	4960	0.010785614140331745
0	5020	0.011211041361093521
0	5042	0.004128096159547567
0	5102	0.011303266510367393
0	5130	0.005294607020914555
0	5152	0.004173675552010536
0	5162	0.0019036983139812946
0	5156	-0.0011462339898571372
0	5182	0.004984789993613958
0	5180	-0.00038484236574731767
0	5226	0.00888682808727026
0	5180	-0.00892383698374033
0	5210	0.005848713219165802
0	5212	0.0003917932335752994
0	5214	0.0003937834990210831
0	5246	0.006331034004688263
0	5252	0.0011922740377485752
0	5260	0.0015958083095028996
0	5256	-0.0008000533562153578
0	5274	0.0036036998499184847
0	5292	0.00359880062751472
0	5298	0.0011954413494095206
0	5310	0.00238022836856544
0	5318	0.0015786773292347789
0	5392	0.01452594343572855
0	5344	-0.00936804711818695
0	5432	0.017089370638132095
0	5502	0.013525350019335747
0	5512	0.0019227812299504876
0	5452	-0.011485598981380463
0	5452	0.0
0	5362	-0.017114605754613876
0	5182	-0.034155163913965225
0	5134	-0.009099986404180527
0	5158	0.004549073521047831
0	5166	0.0015160894254222512
0	5168	0.0003789888578467071
0	5222	0.010232311673462391
0	5196	-0.004924615379422903
0	5296	0.018939154222607613
0	5280	-0.003028047503903508
0	5356	0.014378326013684273
0	6002	0.12208027392625809
0	7796	0.33734485507011414
0	7684	-0.02072487771511078
1	4454	-0.5887213349342346
0	2310	-0.3926691710948944
0	3992	0.3136889338493347
0	5472	0.2782094180583954
0	5726	0.04768222197890282
0	5776	0.00935979001224041
0	5780	0.0007465286180377007
0	5758	-0.004093632567673922
0	5730	-0.005195640493184328
0	5716	-0.0025912169367074966
0	5690	-0.004802660085260868
0	5664	-0.004792449995875359
0	5700	0.006626254878938198
0	5686	-0.002573750214651227
0	5688	0.00036728696431964636
0	5684	-0.000733514258172363
0	5724	0.007324755657464266
0	5734	0.0018271515145897865
0	5784	0.009105145931243896
0	5952	0.008992590010166168
0	5954	0.000358020857675001
0	5944	-0.0017823193920776248
0	5876	-0.012066151015460491
0	5802	-0.013085919432342052
0	5648	-0.027149319648742676
0	5432	-0.03801433742046356
0	5114	-0.0561533197760582
0	4850	-0.047365590929985046
0	4680	-0.031026426702737808
0	4550	-0.023693514987826347
0	4516	-0.006113568786531687
0	4502	-0.0025094703305512667
0	4538	0.006490540690720081
0	4568	0.00544767826795578
0	4628	0.010975610464811325
0	4724	0.01768520288169384
0	4792	0.012607067823410034
0	4884	0.017156070098280907
0	4968	0.01574566960334778
0	5032	0.012051066383719444
0	5028	-0.0007561913225799799
0	5090	0.011770810931921005
0	5126	0.006860540714114904
0	5152	0.004972587339580059
0	5116	-0.006908551324158907
0	5140	0.004623683635145426
0	5152	0.002320694038644433
0	5142	-0.0019418230513110757
0	5174	0.006241791415959597
0	5180	0.0011759018525481224
0	5192	0.002363724634051323
0	5180	-0.0023756104055792093
0	5178	-0.00039794130134396255
0	5204	0.005197297316044569
0	5228	0.004816697910428047
0	5230	0.0004025224770884961
0	5234	0.000806137453764677
0	5262	0.0056384168565273285
0	5330	0.013655533082783222
0	5394	0.012796587310731411
0	5370	-0.00477187754586339
0	5354	-0.0031633474864065647
0	5484	0.02555868588387966
0	5514	0.005861817393451929
0	5450	-0.01242863293737173
0	5422	-0.005408747121691704
0	5272	-0.028845783323049545
0	5166	-0.02032182551920414
0	5162	-0.0007654818473383784
0	5182	0.0038226789329200983
0	5182	0.0
0	5196	0.0026707022916525602
0	5200	0.0007625438156537712
0	5216	0.0030487417243421078
0	5232	0.0030475028324872255
0	5270	0.0072324927896261215
0	5450	0.03423094376921654
0	6152	0.133248969912529
0	8178	0.38211995363235474
1	7078	-0.20362326502799988
0	2114	-0.9082592725753784
0	2780	0.1241888627409935
0	3958	0.2229878157377243
0	5298	0.25562113523483276
0	5650	0.06710812449455261
0	5724	0.014070224016904831
0	5740	0.0030327155254781246
0	5736	-0.000755762739572674
0	5702	-0.006404862739145756
0	5702	0.0
0	5678	-0.004501856863498688
0	5642	-0.00673980638384819
0	5630	-0.0022425714414566755
0	5628	-0.0003734222846105695
0	5626	-0.00037315755616873503
0	5626	0.0
0	5652	0.004839610308408737
0	5686	0.006313834805041552
0	5700	0.0025914728175848722
0	5748	0.008855652995407581
0	5794	0.008457229472696781
0	5844	0.009158291853964329
0	5846	0.0003648880519904196
0	5844	-0.00036346015986055136
0	5776	-0.012310811318457127
0	5712	-0.011548733338713646
0	5590	-0.021956399083137512
0	5396	-0.034884974360466
0	5198	-0.03576632961630821
0	4966	-0.04267372936010361
0	4776	-0.03540680557489395
0	4618	-0.028964608907699585
0	4554	-0.011602189391851425
0	4580	0.004696474876254797
0	4610	0.0054425387643277645
0	4630	0.0036513227969408035
0	4712	0.015070758759975433
0	4806	0.017385728657245636
0	4908	0.01897415518760681
0	4962	0.010094841942191124
0	5000	0.007136686239391565
0	5084	0.01584307849407196
0	5152	0.01287049986422062
0	5152	0.0
0	5160	0.0015233452431857586
0	5176	0.0030557287391275167
0	5200	0.004596761427819729
0	5182	-0.0034575490280985832
0	5182	0.0
0	5178	-0.0007734051905572414
0	5214	0.006986312102526426
0	5226	0.002337540965527296
0	5248	0.004302757792174816
0	5214	-0.0066757421009242535
0	5326	0.022081727162003517
0	5364	0.007514236960560083
0	5352	-0.002378372708335519
0	5348	-0.0007940394571051002
0	5226	-0.02422589808702469
0	5094	-0.026206769049167633
0	5094	0.0
0	5110	0.0031672297045588493
0	5096	-0.002762358170002699
0	5132	0.007077975198626518
0	5140	0.0015672139124944806
0	5210	0.013665825128555298
0	5228	0.0035008557606488466
0	5262	0.006590680219233036
0	5278	0.003092384897172451
0	5580	0.058229960501194
0	6496	0.1759192943572998
0	8128	0.3104550540447235
1	6662	-0.273595929145813
0	2620	-0.7473283410072327
0	3032	0.07738251239061356
0	3806	0.1473369002342224
0	5046	0.23811352252960205
0	5556	0.09803041815757751
0	5636	0.015340561047196388
0	5628	-0.0015296171186491847
0	5646	0.003431796096265316
0	5616	-0.005704000126570463
0	5588	-0.0053106071427464485
0	5584	-0.0007570309680886567
0	5570	-0.0026434380561113358
0	5594	0.004524659365415573
0	5592	-0.0003765107539948076
0	5600	0.0015037782723084092
0	5624	0.004504222422838211
0	5602	-0.004118616227060556
0	5650	0.008957675658166409
0	5688	0.007067049853503704
0	5710	0.004076842218637466
0	5770	0.011076650582253933
0	5744	-0.004781110677868128
0	5718	-0.004763475153595209
0	5684	-0.006209894549101591
0	5608	-0.013842510990798473
0	5480	-0.02326483093202114
0	5312	-0.03049776703119278
0	5132	-0.03272925689816475
0	4924	-0.038135748356580734
0	4834	-0.01683061011135578
0	4708	-0.02383444458246231
0	4658	-0.009335208684206009
0	4654	-0.0007393350824713707
0	4666	0.0022064773365855217
0	4704	0.007003489416092634
0	4792	0.01630394533276558
0	4860	0.01266451459378004
0	4910	0.009356753900647163
0	4986	0.014287861995398998
0	5002	0.003019893541932106
0	5090	0.01667087711393833
0	5118	0.005320968106389046
0	5134	0.0030492839869111776
0	5182	0.00917466264218092
0	5194	0.0022996729239821434
0	5208	0.002689928049221635
0	5196	-0.002311812015250325
0	5220	0.004635710269212723
0	5218	-0.0003873816749546677
0	5286	0.013211065903306007
0	5278	-0.0015585224609822035
0	5272	-0.0011726384982466698
0	5366	0.018428001552820206
0	5382	0.0031439124140888453
0	5290	-0.018113326281309128
0	5290	0.0
0	5154	-0.02686578780412674
0	5050	-0.020565824583172798
0	5052	0.0003957104927394539
0	5070	0.0035583905410021544
0	5086	0.003158102510496974
0	5134	0.009450803510844707
0	5138	0.0007851142436265945
0	5166	0.005478451494127512
0	5210	0.008581012487411499
0	5220	0.0019438359886407852
0	5234	0.0027138444129377604
0	5496	0.050665222108364105
0	6238	0.14294704794883728
0	7648	0.2694713771343231
0	7330	-0.059766948223114014
1	4236	-0.5734585523605347
0	3046	-0.22176943719387054
0	4028	0.18541128933429718
0	5182	0.21948064863681793
0	5516	0.06352869421243668
0	5576	0.011390098370611668
0	5588	0.002272555138915777
0	5558	-0.005668220575898886
0	5558	0.0
0	5540	-0.0033878737594932318
0	5538	-0.00037581269862130284
0	5526	-0.0022511256393045187
0	5500	-0.004872563760727644
0	5504	0.000749073049519211
0	5550	0.008602847345173359
0	5518	-0.005974905099719763
0	5572	0.010059862397611141
0	5564	-0.0014855345943942666
0	5654	0.016659468412399292
0	5702	0.00885314866900444
0	5714	0.0022049364633858204
0	5738	0.004394263029098511
0	5728	-0.001824262784793973
0	5686	-0.007635808549821377
0	5642	-0.007976409047842026
0	5524	-0.021336868405342102
0	5402	-0.022021660581231117
0	5226	-0.031786929816007614
0	5020	-0.03743322193622589
0	4866	-0.028436720371246338
0	4748	-0.022124724462628365
0	4652	-0.017942359670996666
0	4620	-0.005921539384871721
0	4734	0.021018732339143753
0	4690	-0.008134891279041767
0	4796	0.019697964191436768
0	4830	0.0063488902524113655
0	4886	0.010506566613912582
0	4954	0.012811817228794098
0	4986	0.0060520474798977375
0	5066	0.01518314704298973
0	5088	0.004187870305031538
0	5154	0.01259862631559372
0	5182	0.005356664769351482
0	5176	-0.0011502185370773077
0	5218	0.008070818148553371
0	5250	0.006161034107208252
0	5248	-0.0003858619893435389
0	5274	0.005026421044021845
0	5306	0.006201550364494324
0	5312	0.0011657729046419263
0	5306	-0.0011688160011544824
0	5360	0.010548935271799564
0	5436	0.014882312156260014
0	5340	-0.018829436972737312
0	5314	-0.005109727848321199
0	5288	-0.0051167672500014305
0	5196	-0.01811903528869152
0	5098	-0.019304512068629265
0	5108	0.001968839904293418
0	5106	-0.00039314356399700046
0	5112	0.0011766705429181457
0	5180	0.013295618817210197
0	5166	-0.0027273790910840034
0	5182	0.0031082849018275738
0	5234	0.010069843381643295
0	5264	0.005793146323412657
0	5308	0.008472944609820843
0	5574	0.05108442157506943
0	6544	0.18554887175559998
0	8064	0.2878969609737396
1	6502	-0.2903561592102051
0	2778	-0.686232328414917
0	3020	0.04525450989603996
0	3818	0.15126623213291168
0	5172	0.2588810920715332
0	5556	0.0734412893652916
0	5610	0.010307572782039642
0	5628	0.0034279620740562677
0	5600	-0.005320429336279631
0	5594	-0.0011379729257896543
0	5586	-0.00151459698099643
0	5600	0.0026458692736923695
0	5594	-0.0011322321370244026
0	5560	-0.006409612018615007
0	5588	0.0052712163887917995
0	5580	-0.0015034767566248775
0	5598	0.0033766459673643112
0	5622	0.004490905907005072
0	5700	0.014547895640134811
0	5718	0.0033448957838118076
0	5762	0.008145533502101898
0	5812	0.009219309315085411
0	5838	0.004775490611791611
0	5818	-0.0036584027111530304
0	5768	-0.009110676124691963
0	5664	-0.018888942897319794
0	5526	-0.025003623217344284
0	5324	-0.03655138239264488
0	5152	-0.031169960275292397
0	4914	-0.0434962697327137
0	4818	-0.01788797602057457
0	4698	-0.022596316412091255
0	4670	-0.00520968995988369
0	4668	-0.00036835126229561865
0	4722	0.009893855080008507
0	4774	0.00955367274582386
0	4840	0.01218416541814804
0	4880	0.007419498171657324
0	4942	0.011553656309843063
0	4978	0.00673610670492053
0	5042	0.012021488510072231
0	5076	0.006408242974430323
0	5152	0.014371619559824467
0	5156	0.0007585143321193755
0	5190	0.006463878322392702
0	5228	0.007242601830512285
0	5256	0.0053486148826777935
0	5258	0.00038287771167233586
0	5304	0.008826689794659615
0	5296	-0.0015389745822176337
0	5244	-0.010030476376414299
0	5274	0.005806152243167162
0	5324	0.009710623882710934
0	5342	0.0035074956249445677
0	5342	0.0
0	5410	0.013328629545867443
0	5430	0.003926701378077269
0	5374	-0.011001676321029663
0	5342	-0.006284614559262991
0	5250	-0.0180458202958107
0	5138	-0.021920667961239815
0	5154	0.0031250000465661287
0	5152	-0.0003894687397405505
0	5154	0.0003882540331687778
0	5180	0.0050314790569245815
0	5196	0.0030871741473674774
0	5218	0.00423337472602725
0	5252	0.006526663433760405
0	5248	-0.0007660193950869143
0	5282	0.006498470902442932
0	5440	0.030140401795506477
0	6032	0.11264604330062866
0	7634	0.3029921054840088
0	7182	-0.08417132496833801
1	4404	-0.5108934044837952
0	2818	-0.2930885851383209
0	3968	0.21571937203407288
0	5266	0.24545831978321075
0	5596	0.062401510775089264
0	5660	0.012079877778887749
0	5644	-0.0030130690429359674
0	5662	0.0033812131732702255
0	5652	-0.0018738990183919668
0	5640	-0.002244081348180771
0	5630	-0.0018666002433747053
0	5606	-0.0044718277640640736
0	5620	0.002605394460260868
0	5606	-0.0026023273821920156
0	5628	0.004083501640707254
0	5624	-0.0007411433034576476
0	5668	0.008133788593113422
0	5696	0.005159197840839624
0	5758	0.011386035941541195
0	5782	0.004391207825392485
0	5856	0.01348789781332016
0	5882	0.004719607066363096
0	5912	0.005423189606517553
0	5874	-0.006840766407549381
0	5798	-0.013630657456815243
0	5744	-0.009653199464082718
0	5618	-0.02246229536831379
0	5274	-0.061260830610990524
0	5052	-0.0397133007645607
0	4862	-0.03452035039663315
0	4698	-0.030221130698919296
0	4624	-0.013611781410872936
0	4590	-0.006185567006468773
0	4654	0.011599666438996792
0	4658	0.0007276696269400418
0	4736	0.014270729385316372
0	4838	0.018767479807138443
0	4914	0.01405308023095131
0	4948	0.006316024344414473
0	4976	0.005224205553531647
0	5026	0.0093676233664155
0	5072	0.008650844916701317
0	5100	0.005283417645841837
0	5152	0.009844259358942509
0	5170	0.0034174188040196896
0	5182	0.0022849019151180983
0	5178	-0.0007637766539119184
0	5216	0.007278578355908394
0	5232	0.003074085572734475
0	5234	0.00038555951323360205
0	5222	-0.002321532228961587
0	5248	0.005050635896623135
0	5270	0.004291231743991375
0	5270	0.0
0	5236	-0.006686069071292877
0	5256	0.003947524353861809
0	5244	-0.002376143354922533
0	5248	0.0007940078503452241
0	5284	0.007147300522774458
0	5346	0.012290369719266891
0	5370	0.004742395598441362
0	5360	-0.0019672904163599014
0	5352	-0.0015662729274481535
0	5412	0.011688918806612492
0	5460	0.00930533092468977
0	5428	-0.006171569228172302
0	5430	0.00038401474012061954
0	5350	-0.015302608720958233
0	5258	-0.017549214884638786
0	5138	-0.022845247760415077
0	5134	-0.0007607262232340872
0	5160	0.004941337276250124
0	5152	-0.0015195644227787852
0	5182	0.005696490872651339
0	5196	0.002657857723534107
0	5234	0.007212998811155558
0	5258	0.004554079845547676
0	5290	0.006069035269320011
0	5300	0.0018956867279484868
0	5574	0.05191950500011444
0	7042	0.2775711715221405
0	7902	0.16076569259166718
1	4810	-0.5686053037643433
0	3030	-0.3282598555088043
0	4678	0.30816027522087097
0	5442	0.14335931837558746
0	5614	0.03223710507154465
0	5632	0.003365870099514723
0	5652	0.0037309254985302687
0	5644	-0.0014889630256220698
0	5608	-0.00668796943500638
0	5602	-0.0011130210477858782
0	5596	-0.0011113581713289022
0	5566	-0.005548432003706694
0	5562	-0.0007390891551040113
0	5560	-0.000369312590919435
0	5574	0.0025830892845988274
0	5624	0.0092171560972929
0	5640	0.002944532549008727
0	5680	0.007344121113419533
0	5746	0.012077736668288708
0	5830	0.015314494259655476
0	5870	0.007263042964041233
0	5906	0.006508455146104097
0	5942	0.006480181589722633
0	5934	-0.001433623256161809
0	5858	-0.013562709093093872
0	5718	-0.024895085021853447
0	5520	-0.035119667649269104
0	5200	-0.056685324758291245
0	4926	-0.048644233494997025
0	4676	-0.04494624212384224
0	4544	-0.024199463427066803
0	4512	-0.005876088049262762
0	4522	0.001819769968278706
0	4542	0.0036429872270673513
0	4576	0.00622710632160306
0	4638	0.01142772939056158
0	4686	0.00890163704752922
0	4808	0.02276090905070305
0	4868	0.011252391152083874
0	4918	0.009420571848750114
0	4950	0.00605517765507102
0	5014	0.012159902602434158
0	5022	0.0015253203455358744
0	5062	0.007652866188436747
0	5092	0.005757936276495457
0	5098	0.0011551494244486094
0	5130	0.006181663367897272
0	5140	0.001938134664669633
0	5166	0.005056791473180056
0	5182	0.0031236172653734684
0	5198	0.0031368450727313757
0	5182	-0.0031506812665611506
0	5216	0.006727167405188084
0	5200	-0.0031809567008167505
0	5240	0.007991262711584568
0	5246	0.0012036430416628718
0	5228	-0.003622362157329917
0	5264	0.007258942816406488
0	5258	-0.0012093036202713847
0	5256	-0.0004022040811832994
0	5282	0.005208403337746859
0	5258	-0.0047841803170740604
0	5244	-0.0027770064771175385
0	5262	0.0035534731578081846
0	5294	0.006287495605647564
0	5292	-0.00039112920057959855
0	5306	0.0027262812945991755
0	5298	-0.0015516304410994053
0	5304	0.0011600479483604431
0	5306	0.0003855991526506841
0	5316	0.0019232002086937428
0	5306	-0.0019186983117833734
0	5302	-0.0007660487317480147
0	5332	0.005735114216804504
0	5320	-0.0022901056800037622
0	5386	0.012577338144183159
0	5312	-0.014076112769544125
0	5372	0.011399907991290092
0	5478	0.020110290497541428
0	5424	-0.010224690660834312
0	5362	-0.011721556074917316
0	5320	-0.007932211272418499
0	5224	-0.018115030601620674
0	5134	-0.016981985419988632
0	5102	-0.006040547508746386
0	5112	0.0018893115920946002
0	5102	-0.0018909071804955602
0	5134	0.006055712699890137
0	5182	0.009091024287045002
0	5212	0.005684617441147566
0	5218	0.0011372396256774664
0	5228	0.0018961660098284483
0	5242	0.0026551359333097935
0	5300	0.01099998690187931
0	5910	0.11566174030303955
0	7510	0.30219849944114685
0	7712	0.03762713074684143
1	4638	-0.5641747117042542
0	2396	-0.41314497590065
0	3730	0.25029394030570984
0	5238	0.2857576012611389
0	5588	0.06635574251413345
0	5626	0.00719152158126235
0	5644	0.003399561857804656
0	5648	0.0007539772195741534
0	5616	-0.006019412539899349
0	5604	-0.002254029270261526
0	5578	-0.004874817095696926
0	5582	0.0007490075659006834
0	5586	0.0007485216483473778
0	5580	-0.0011216490529477596
0	5586	0.0011201275046914816
0	5592	0.0011182763846591115
0	5636	0.008181987330317497
0	5700	0.011864155530929565
0	5722	0.004063288681209087
0	5780	0.010672228410840034
0	5846	0.012093966826796532
0	5934	0.01605546474456787
0	5970	0.006538242567330599
0	5958	-0.0021694586612284184
0	5932	-0.004679625853896141
0	5832	-0.017922859638929367
0	5606	-0.04036338999867439
0	5292	-0.05597813054919243
0	5030	-0.04688003286719322
0	4814	-0.03922945261001587
0	4586	-0.04214833304286003
0	4484	-0.01886187680065632
0	4454	-0.005477117840200663
0	4468	0.002544775838032365
0	4516	0.008765842765569687
0	4590	0.013602773658931255
0	4632	0.007769816089421511
0	4730	0.018243420869112015
0	4828	0.018347935751080513
0	4858	0.00564447371289134
0	4900	0.007939408533275127
0	4960	0.011390674859285355
0	4992	0.006099033169448376
0	5000	0.0015305342385545373
0	5058	0.011137568391859531
0	5098	0.00770712923258543
0	5092	-0.0011597489938139915
0	5152	0.011638282798230648
0	5152	0.0
0	5182	0.005861511919647455
0	5210	0.005492134485393763
0	5198	-0.0023636005353182554
0	5216	0.0035626161843538284
0	5182	-0.00676302844658494
0	5216	0.006798005662858486
0	5228	0.002410800429061055
0	5250	0.004437750205397606
0	5228	-0.004448398482054472
0	5240	0.0024274461902678013
0	5260	0.004040022846311331
0	5254	-0.0012083780020475388
0	5260	0.0012029834324494004
0	5280	0.0039892555214464664
0	5262	-0.003570720087736845
0	5332	0.013813608326017857
0	5294	-0.007458780892193317
0	5318	0.004689209628850222
0	5316	-0.0003890293592121452
0	5306	-0.0019377842545509338
0	5324	0.0034772753715515137
0	5316	-0.0015408321050927043
0	5322	0.00115254579577595
0	5346	0.0045995223335921764
0	5320	-0.0049715726636350155
0	5314	-0.001144950743764639
0	5308	-0.0011430894955992699
0	5326	0.0034247010480612516
0	5322	-0.0007599169039167464
0	5344	0.004175048321485519
0	5314	-0.005686341784894466
0	5334	0.0037877352442592382
0	5320	-0.0026493407785892487
0	5338	0.00340367597527802
0	5392	0.010203181765973568
0	5420	0.00528355035930872
0	5326	-0.017714902758598328
0	5446	0.02260085754096508
0	5546	0.018810899928212166
0	5452	-0.01764705963432789
0	5408	-0.008249381557106972
0	5348	-0.011238761246204376
0	5214	-0.025085177272558212
0	5152	-0.011609907262027264
0	5140	-0.0022488755639642477
0	5128	-0.0022505908273160458
0	5166	0.007135971449315548
0	5152	-0.002631150186061859
0	5178	0.004891508724540472
0	5208	0.005648937076330185
0	5212	0.0007536552147939801
0	5254	0.00791895017027855
0	5248	-0.0011317196767777205
0	5498	0.04717693105340004
0	6376	0.1655271202325821
0	8191	0.33992159366607666
1	6500	-0.31111055612564087
0	2250	-0.7762415409088135
0	3188	0.17459066212177277
0	4820	0.30784130096435547
0	5470	0.12301364541053772
0	5630	0.030250512063503265
0	5656	0.00490655517205596
0	5652	-0.0007532625459134579
0	5608	-0.008269588463008404
0	5602	-0.0011261473409831524
0	5568	-0.006374242715537548
0	5586	0.003369503654539585
0	5586	0.0
0	5568	-0.003365723416209221
0	5558	-0.001868495368398726
0	5536	-0.004106852691620588
0	5604	0.012679076753556728
0	5632	0.005208171904087067
0	5686	0.010014527477324009
0	5738	0.009611178189516068
0	5824	0.015835896134376526
0	5912	0.016138991340994835
0	5934	0.004016088787466288
0	5956	0.003997698426246643
0	5958	0.0003617879410739988
0	5874	-0.015127048827707767
0	5788	-0.015429791994392872
0	5578	-0.03755611181259155
0	5264	-0.05612856149673462
0	4968	-0.053263913840055466
0	4748	-0.0403684563934803
0	4578	-0.03153169900178909
0	4470	-0.019747668877243996
0	4428	-0.0076201073825359344
0	4456	0.005092143546789885
0	4500	0.008051431737840176
0	4550	0.009212853386998177
0	4636	0.015954485163092613
0	4766	0.02426972985267639
0	4794	0.00525486096739769
0	4854	0.011317622847855091
0	4902	0.00909492839127779
0	4976	0.014082184061408043
0	5010	0.006495326291769743
0	5034	0.004601285792887211
0	5098	0.01231132261455059
0	5106	0.0015432495856657624
0	5112	0.0011611555237323046
0	5152	0.007767091039568186
0	5152	0.0
0	5180	0.0054766652174293995
0	5182	0.000392839836422354
0	5194	0.0023683588951826096
0	5216	0.004363232292234898
0	5248	0.006377720274031162
0	5220	-0.005606953054666519
0	5216	-0.0008045052527450025
0	5246	0.006057017017155886
0	5244	-0.00040470538078807294
0	5246	0.0004047599504701793
0	5248	0.00040400231955572963
0	5278	0.00603970093652606
0	5264	-0.0028053487185388803
0	5304	0.007972998544573784
0	5280	-0.004756116773933172
0	5310	0.005912960972636938
0	5282	-0.005489550065249205
0	5302	0.0039024390280246735
0	5306	0.0007771215168759227
0	5318	0.002323240041732788
0	5302	-0.0030872139614075422
0	5310	0.0015391719061881304
0	5310	0.0
0	5308	-0.00038297055289149284
0	5324	0.0030579480808228254
0	5308	-0.0030523091554641724
0	5354	0.008763685822486877
0	5336	-0.0034238756634294987
0	5338	0.0003798911056946963
0	5322	-0.003035553963854909
0	5302	-0.0037903673946857452
0	5332	0.005681172478944063
0	5340	0.00151354621630162
0	5382	0.0079388078302145
0	5384	0.00037764350418001413
0	5416	0.006037128623574972
0	5366	-0.009421399794518948
0	5492	0.023719580844044685
0	5514	0.004135130904614925
0	5436	-0.014636159874498844
0	5386	-0.0093710171058774
0	5296	-0.016853300854563713
0	5172	-0.023217495530843735
0	5152	-0.0037469088565558195
0	5136	-0.0030003751162439585
0	5152	0.0030030780471861362
0	5156	0.0007515124161727726
0	5182	0.004888688214123249
0	5198	0.0030106878839433193
0	5214	0.003012728877365589
0	5242	0.005275718867778778
0	5262	0.003769791219383478
0	5400	0.02601940743625164
0	6210	0.15263627469539642
0	8191	0.3711962401866913
1	7196	-0.1831614226102829
0	2284	-0.8938547968864441
0	2710	0.07899177074432373
0	4450	0.3279656767845154
0	5450	0.18954351544380188
0	5642	0.03636294603347778
0	5648	0.0011339082848280668
0	5654	0.0011316555319353938
0	5612	-0.007905981503427029
0	5620	0.0015037311241030693
0	5588	-0.006006043404340744
0	5564	-0.004499690607190132
0	5570	0.0011235324200242758
0	5572	0.0003743285487871617
0	5570	-0.0003741931286640465
0	5608	0.007103733252733946
0	5632	0.004480370320379734
0	5660	0.005216192454099655
0	5728	0.012629624456167221
0	5800	0.013325025327503681
0	5864	0.01179614756256342
0	5942	0.014313939958810806
0	5996	0.009862233884632587
0	5978	-0.0032712004613131285
0	5946	-0.005788118578493595
0	5896	-0.009004196152091026
0	5738	-0.02834199368953705
0	5496	-0.04328668862581253
0	5182	-0.05613324046134949
0	4834	-0.06259480118751526
0	4600	-0.04295417293906212
0	4444	-0.029098324477672577
0	4406	-0.006994122639298439
0	4404	-0.00036432084743864834
0	4472	0.012390369549393654
0	4528	0.010264807380735874
0	4610	0.01513361930847168
0	4648	0.0070582120679318905
0	4766	0.022054975852370262
0	4782	0.003006350714713335
0	4870	0.01662217266857624
0	4920	0.009487305767834187
0	4964	0.008382975123822689
0	5016	0.009945427998900414
0	5078	0.011900192126631737
0	5086	0.001540357363410294
0	5152	0.012750665657222271
0	5152	0.0
0	5172	0.0038885793182998896
0	5196	0.0046831704676151276
0	5182	-0.002742624143138528
0	5192	0.0019677807576954365
0	5220	0.005537025630474091
0	5210	-0.0019876763690263033
0	5214	0.0007991369348019361
0	5236	0.004416783805936575
0	5236	0.0
0	5256	0.004046726040542126
0	5260	0.0008106574532575905
0	5238	-0.0044562676921486855
0	5260	0.004444145131856203
0	5260	0.0
0	5286	0.005200485698878765
0	5278	-0.0015908157220110297
0	5286	0.0015816527884453535
0	5292	0.0011799100320786238
0	5312	0.003913434688001871
0	5298	-0.002726918552070856
0	5306	0.0015516907442361116
0	5318	0.002319438150152564
0	5310	-0.0015409706393256783
0	5338	0.00537820253521204
0	5346	0.0015325279673561454
0	5300	-0.008790592662990093
0	5314	0.00267056655138731
0	5324	0.0019046892412006855
0	5354	0.005705446936190128
0	5322	-0.006078026723116636
0	5334	0.0022768094204366207
0	5334	0.0
0	5396	0.01174123864620924
0	5370	-0.004917102865874767
0	5400	0.005667220801115036
0	5494	0.017737187445163727
0	5526	0.006027424708008766
0	5440	-0.016167033463716507
0	5414	-0.0048814681358635426
0	5304	-0.020629383623600006
0	5168	-0.025497769936919212
0	5140	-0.00525256060063839
0	5152	0.0022524776868522167
0	5162	0.0018783339764922857
0	5198	0.0067661539651453495
0	5176	-0.004137152805924416
0	5196	0.0037634545005857944
0	5226	0.005648370366543531
0	5254	0.005273996386677027
0	5250	-0.0007537025958299637
0	5416	0.03128809109330177
0	6174	0.14277103543281555
0	8191	0.37787574529647827
1	6770	-0.2615128755569458
0	2220	-0.8300647735595703
0	2654	0.08070965111255646
0	4172	0.28700533509254456
0	5452	0.2437615543603897
0	5668	0.0411013662815094
0	5720	0.009875105693936348
0	5690	-0.0056828586384654045
0	5690	0.0
0	5638	-0.009806201793253422
0	5658	0.00376588711515069
0	5642	-0.0030072738882154226
0	5604	-0.007131462916731834
0	5620	0.0030006563756614923
0	5610	-0.0018743089167401195
0	5602	-0.0014978561084717512
0	5632	0.005610377993434668
0	5642	0.0018663100199773908
0	5654	0.0022329874336719513
0	5712	0.010758471675217152
0	5780	0.012569858692586422
0	5870	0.016573466360569
0	5928	0.010636801831424236
0	5988	0.010953235439956188
0	5988	0.0
0	5914	-0.0133824422955513
0	5900	-0.0025217803195118904
0	5766	-0.024043206125497818
0	5558	-0.0372428372502327
0	5270	-0.051757294684648514
0	4948	-0.05889812856912613
0	4726	-0.04106295108795166
0	4526	-0.036430757492780685
0	4414	-0.020171942189335823
0	4424	0.0017984532751142979
0	4410	-0.002533447463065386
0	4488	0.014222849160432816
0	4546	0.010655757039785385
0	4586	0.007400646805763245
0	4712	0.02347184717655182
0	4788	0.014239498414099216
0	4818	0.005651562474668026
0	4896	0.014770490117371082
0	4938	0.00798904336988926
0	5000	0.011844567954540253
0	5028	0.005370019935071468
0	5090	0.0119345523416996
0	5112	0.004249620251357555
0	5112	0.0
0	5160	0.009336341172456741
0	5174	0.0027328806463629007
0	5180	0.00117587111890316
0	5228	0.00944956298917532
0	5182	-0.009097621776163578
0	5236	0.010736867785453796
0	5234	-0.0003996536252088845
0	5216	-0.003613248700276017
0	5204	-0.00241990783251822
0	5230	0.00526301609352231
0	5228	-0.0004057453479617834
0	5268	0.008117212913930416
0	5248	-0.0040498399175703526
0	5278	0.006053431425243616
0	5256	-0.004416842944920063
0	5268	0.00239568785764277
0	5280	0.0023823073133826256
0	5316	0.007106011267751455
0	5276	-0.007852786220610142
0	5298	0.004298497922718525
0	5292	-0.001166906557045877
0	5312	0.0038751179818063974
0	5334	0.004248252138495445
0	5320	-0.002694484079256654
0	5306	-0.002687174594029784
0	5322	0.0030638426542282104
0	5350	0.005350727587938309
0	5400	0.00953531265258789
0	5356	-0.008374571800231934
0	5472	0.022044291719794273
0	5530	0.010997067205607891
0	5494	-0.006809841375797987
0	5390	-0.019633261486887932
0	5336	-0.010180739685893059
0	5248	-0.016579581424593925
0	5182	-0.012429535388946533
0	5182	0.0
0	5174	-0.0015076134586706758
0	5200	0.004901036620140076
0	5216	0.003016098402440548
0	5208	-0.0015081819146871567
0	5242	0.006410578731447458
0	5272	0.005657317582517862
0	5304	0.006033561658114195
0	5322	0.003393324092030525
0	5862	0.10175751149654388
0	7078	0.2282910794019699
0	8191	0.2066289484500885
1	5396	-0.5098225474357605
0	2446	-0.5377030372619629
0	2950	0.09348510205745697
0	4042	0.2055271565914154
0	5234	0.22615018486976624
0	5564	0.06264831870794296
0	5634	0.013268548995256424
0	5646	0.0022699041292071342
0	5610	-0.00679582916200161
0	5566	-0.008292446844279766
0	5576	0.0018826836021617055
0	5582	0.0011280528269708157
0	5570	-0.002254551276564598
0	5584	0.0026296512223780155
0	5552	-0.00600724620744586
0	5566	0.002625508699566126
0	5600	0.006367080844938755
0	5600	0.0
0	5630	0.005591138731688261
0	5648	0.003345372388139367
0	5676	0.005188676528632641
0	5736	0.0110859964042902
0	5790	0.00994554441422224
0	5842	0.009543093852698803
0	5820	-0.004022697452455759
0	5778	-0.007654130458831787
0	5734	-0.007995590567588806
0	5604	-0.023564528673887253
0	5392	-0.03848830610513687
0	5182	-0.038518209010362625
0	4942	-0.04484584555029869
0	4738	-0.03822706639766693
0	4582	-0.028819864615797997
0	4588	0.0010974270990118384
0	4530	-0.010573266074061394
0	4566	0.006590911652892828
0	4618	0.009578544646501541
0	4650	0.005931491497904062
0	4720	0.013055479153990746
0	4764	0.008251959457993507
0	4838	0.0139482282102108
0	4900	0.011740793474018574
0	4976	0.01445416547358036
0	5058	0.01565423235297203
0	5088	0.005746392533183098
0	5134	0.008837316185235977
0	5152	0.0034676736686378717
0	5170	0.0034776784013956785
0	5182	0.0023248905781656504
0	5200	0.003497454570606351
0	5210	0.001948684686794877
0	5182	-0.005472883116453886
0	5214	0.006277381908148527
0	5220	0.0011814589379355311
0	5214	-0.0011863021645694971
0	5200	-0.0027791380416601896
0	5210	0.0019927199464291334
0	5202	-0.0015997440787032247
0	5202	0.0
0	5218	0.0032121632248163223
0	5202	-0.003211389761418104
0	5248	0.009216713719069958
0	5264	0.003194930963218212
0	5290	0.005168301053345203
0	5344	0.010684465058147907
0	5316	-0.005510509014129639
0	5330	0.0027417647652328014
0	5454	0.0241718553006649
0	5488	0.0065933214500546455
0	5390	-0.018910400569438934
0	5364	-0.004996924661099911
0	5300	-0.012258813716471195
0	5160	-0.026747843250632286
0	5112	-0.009159955196082592
0	5140	0.005341472569853067
0	5152	0.002288445830345154
0	5180	0.005339095834642649
0	5200	0.0038129615131765604
0	5204	0.0007624469581060112
0	5212	0.0015246807597577572
0	5256	0.008385105058550835
0	5280	0.0045723579823970795
0	5334	0.010281405411660671
0	5816	0.09170122444629669
0	7254	0.2725515067577362
0	7912	0.12312719970941544
1	4684	-0.5939865112304688
0	2532	-0.3972727656364441
0	3136	0.11336478590965271
0	4606	0.279517263174057
0	5594	0.18859761953353882
0	5680	0.016375545412302017
0	5712	0.00607656454667449
0	5698	-0.0026509794406592846
0	5668	-0.005666079465299845
0	5632	-0.006785453762859106
0	5628	-0.0007524454267695546
0	5634	0.0011265631765127182
0	5626	-0.0015003939624875784
0	5606	-0.003747751470655203
0	5606	0.0
0	5610	0.0007474120939150453
0	5660	0.009324646554887295
0	5674	0.0026028112042695284
0	5736	0.011486728675663471
0	5788	0.00959870032966137
0	5858	0.012870959006249905
0	5896	0.00695817731320858
0	5940	0.00802275538444519
0	5934	-0.001089140074327588
0	5870	-0.011566962115466595
0	5792	-0.014045280404388905
0	5642	-0.0269274041056633
0	5358	-0.05088876187801361
0	5102	-0.045997388660907745
0	4842	-0.04732607677578926
0	4630	-0.03932139649987221
0	4500	-0.024120230227708817
0	4464	-0.006599127314984798
0	4506	0.00763701181858778
0	4554	0.00873330608010292
0	4606	0.009521136060357094
0	4694	0.01621900498867035
0	4750	0.010386141948401928
0	4804	0.010074250400066376
0	4878	0.013880032114684582
0	4986	0.020353293046355247
0	5000	0.002649073489010334
0	5070	0.013298545964062214
0	5152	0.015633340924978256
0	5164	0.002294425619766116
0	5192	0.005368784070014954
0	5234	0.008074749261140823
0	5256	0.004241209011524916
0	5246	-0.0019330146024003625
0	5240	-0.0011634822003543377
0	5240	0.0
0	5240	0.0
0	5226	-0.0027471447829157114
0	5240	0.002760034753009677
0	5230	-0.001980485627427697
0	5234	0.0007955555338412523
0	5228	-0.0011977641843259335
0	5242	0.00280250352807343
0	5250	0.001602671225555241
0	5290	0.008005443960428238
0	5260	-0.005986191798001528
0	5278	0.003576727584004402
0	5246	-0.0063260276801884174
0	5304	0.01140714343637228
0	5310	0.0011739078909158707
0	5318	0.001557531300932169
0	5342	0.00465110270306468
0	5388	0.008877452462911606
0	5358	-0.005765978246927261
0	5376	0.0034473512787371874
0	5520	0.027491409331560135
0	5492	-0.005327447783201933
0	5402	-0.017070671543478966
0	5374	-0.0052997516468167305
0	5298	-0.014364919625222683
0	5178	-0.022662319242954254
0	5138	-0.007554772309958935
0	5162	0.004535604268312454
0	5154	-0.001512763905338943
0	5212	0.01097390241920948
0	5222	0.0018923862371593714
0	5208	-0.0026496415957808495
0	5254	0.008707723580300808
0	5290	0.006813535932451487
0	5300	0.001892052125185728
0	5664	0.06884030252695084
0	6928	0.23840361833572388
0	8191	0.23569588363170624
1	4796	-0.6221480965614319
0	2226	-0.4722731113433838
0	3588	0.2550736963748932
0	5114	0.2888018488883972
0	5606	0.09320948272943497
0	5670	0.012097308412194252
0	5656	-0.002640197752043605
0	5696	0.0075270505622029305
0	5654	-0.007884708233177662
0	5626	-0.0052462294697761536
0	5612	-0.0026192213408648968
0	5620	0.001494330819696188
0	5604	-0.002984127961099148
0	5600	-0.0007456426392309368
0	5592	-0.0014902851544320583
0	5604	0.0022327937185764313
0	5668	0.011891269125044346
0	5670	0.0003707525902427733
0	5678	0.0014785153325647116
0	5748	0.01289411447942257
0	5804	0.01027830969542265
0	5882	0.014259511604905128
0	5952	0.012744961306452751
0	5974	0.003987891133874655
0	5990	0.002886922797188163
0	5884	-0.019041573628783226
0	5788	-0.017184078693389893
0	5570	-0.038908883929252625
0	5300	-0.048216868191957474
0	4946	-0.06383631378412247
0	4686	-0.0478181429207325
0	4528	-0.029078327119350433
0	4438	-0.016332950443029404
0	4410	-0.005055368412286043
0	4428	0.0032637075055390596
0	4498	0.012783209793269634
0	4578	0.014714357443153858
0	4682	0.019255932420492172
0	4766	0.015650812536478043
0	4806	0.007494098506867886
0	4874	0.012805543839931488
0	4938	0.01210836973041296
0	4966	0.005320294294506311
0	5014	0.009157508611679077
0	5052	0.007276812102645636
0	5072	0.0038431482389569283
0	5082	0.0019281443674117327
0	5152	0.013548037968575954
0	5174	0.004272231832146645
0	5168	-0.0011689678067341447
0	5176	0.0015645168023183942
0	5224	0.009425687603652477
0	5248	0.004733229987323284
0	5182	-0.013076902367174625
0	5212	0.005975302308797836
0	5216	0.0008008435252122581
0	5254	0.007642082404345274
0	5264	0.0020182994194328785
0	5254	-0.0020224626641720533
0	5274	0.004046180751174688
0	5278	0.0008074500947259367
0	5292	0.002814862411469221
0	5298	0.0012002240400761366
0	5294	-0.0007955871406011283
0	5330	0.007118563167750835
0	5284	-0.009042183868587017
0	5300	0.0031289926264435053
0	5308	0.0015571675030514598
0	5302	-0.0011631513480097055
0	5296	-0.00115913653280586
0	5348	0.010014250874519348
0	5410	0.011903847567737103
0	5374	-0.006891095079481602
0	5352	-0.004200289957225323
0	5522	0.03238712251186371
0	5560	0.007217931095510721
0	5474	-0.01628500036895275
0	5408	-0.012466943822801113
0	5364	-0.008297921158373356
0	5198	-0.031268443912267685
0	5152	-0.0086631178855896
0	5166	0.0026369981933385134
0	5138	-0.005275918170809746
0	5182	0.008296459913253784
0	5214	0.006033788900822401
0	5204	-0.0018855354283005
0	5250	0.008674116805195808
0	5238	-0.002262870082631707
0	5270	0.006035306490957737
0	5388	0.02225295454263687
0	6174	0.1481211632490158
0	8191	0.37797486782073975
1	6774	-0.2608151435852051
0	2154	-0.8427325487136841
0	2780	0.11641097068786621
0	4560	0.3363249897956848
0	5572	0.19208990037441254
0	5672	0.01894860528409481
0	5714	0.007940158247947693
0	5730	0.0030169894453138113
0	5698	-0.0060175638645887375
0	5678	-0.0037527442909777164
0	5662	-0.0029971713665872812
0	5604	-0.010845242999494076
0	5602	-0.0003733874182216823
0	5600	-0.000373201648471877
0	5600	0.0
0	5642	0.007829150184988976
0	5658	0.0029782033525407314
0	5662	0.0007431951235048473
0	5682	0.003705327631905675
0	5740	0.010710394941270351
0	5826	0.015825018286705017
0	5898	0.013193176127970219
0	5924	0.004743457771837711
0	5974	0.00908281747251749
0	5994	0.003616265719756484
0	5946	-0.008640293963253498
0	5840	-0.018999934196472168
0	5662	-0.03179726004600525
0	5400	-0.046726472675800323
0	5088	-0.05590095743536949
0	4844	-0.044542886316776276
0	4618	-0.04174722731113434
0	4472	-0.026566386222839355
0	4408	-0.01152723841369152
0	4420	0.002163331490010023
0	4438	0.0032676178961992264
0	4488	0.00914500281214714
0	4566	0.014373640529811382
0	4632	0.012249898165464401
0	4714	0.015320612117648125
0	4810	0.01804465986788273
0	4874	0.01209433563053608
0	4952	0.014808065257966518
0	4980	0.005337671376764774
0	5006	0.004976012744009495
0	5068	0.011911013163626194
0	5092	0.00462772510945797
0	5126	0.006579881068319082
0	5152	0.005049131810665131
0	5182	0.005845977924764156
0	5158	-0.004693794995546341
0	5194	0.007071487605571747
0	5194	0.0
0	5190	-0.0007931681466288865
0	5196	0.0011959497351199389
0	5206	0.0020038741640746593
0	5208	0.00040276566869579256
0	5216	0.0016179266385734081
0	5232	0.0032456116750836372
0	5240	0.001624651369638741
0	5234	-0.0012172360438853502
0	5258	0.004856136627495289
0	5240	-0.0036264490336179733
0	5250	0.002004356123507023
0	5282	0.006378059275448322
0	5250	-0.00634174095466733
0	5274	0.004730928223580122
0	5304	0.005883275531232357
0	5314	0.0019516765605658293
0	5322	0.001554444432258606
0	5318	-0.0007741735898889601
0	5350	0.006173157133162022
0	5384	0.006538964342325926
0	5396	0.002301495987921953
0	5388	-0.0015302608953788877
0	5498	0.02098996192216873
0	5554	0.010656652972102165
0	5466	-0.0166972354054451
0	5390	-0.014389397576451302
0	5346	-0.00831820908933878
0	5264	-0.015486111864447594
0	5152	-0.02113765850663185
0	5154	0.00037755793891847134
0	5182	0.005287142004817724
0	5182	0.0
0	5182	0.0
0	5196	0.002644336549565196
0	5216	0.0037779095582664013
0	5258	0.007933610118925571
0	5272	0.002644103718921542
0	5424	0.028701629489660263
0	6112	0.12975744903087616
0	8076	0.36843422055244446
1	6404	-0.3081913888454437
0	2126	-0.7829906940460205
0	2794	0.12466252595186234
0	4436	0.31118524074554443
0	5458	0.19471612572669983
0	5676	0.04149377718567848
0	5680	0.000759609043598175
0	5722	0.007957861758768559
0	5678	-0.008315589278936386
0	5650	-0.005280826706439257
0	5622	-0.005272010341286659
0	5594	-0.005264542996883392
0	5598	0.000751107872929424
0	5618	0.0037531903944909573
0	5574	-0.008253714069724083
0	5620	0.008623059839010239
0	5640	0.003743775887414813
0	5680	0.007473841775208712
0	5752	0.013418149203062057
0	5800	0.008912215009331703
0	5846	0.00850686151534319
0	5918	0.013260808773338795
0	5934	0.0029335906729102135
0	5898	-0.006570382043719292
0	5866	-0.005815503187477589
0	5788	-0.014119691215455532
0	5658	-0.02345779910683632
0	5444	-0.03852570056915283
0	5230	-0.03852107748389244
0	5006	-0.04053565114736557
0	4732	-0.05051932856440544
0	4556	-0.03278729319572449
0	4500	-0.010277241468429565
0	4506	0.0010897599859163165
0	4512	0.0010892982827499509
0	4532	0.0036519006825983524
0	4620	0.016181031242012978
0	4704	0.015546535141766071
0	4760	0.010429859161376953
0	4842	0.015359831973910332
0	4924	0.015437716618180275
0	4950	0.004916421137750149
0	5018	0.01291073951870203
0	5048	0.0057168989442288876
0	5116	0.0130053935572505
0	5118	0.00038363170460797846
0	5152	0.00654273945838213
0	5180	0.005405057221651077
0	5166	-0.0027112518437206745
0	5182	0.0031103393994271755
0	5180	-0.00039035562076605856
0	5204	0.004704652354121208
0	5196	-0.001575568225234747
0	5200	0.0007916194153949618
0	5210	0.0019882034976035357
0	5182	-0.005591277964413166
0	5182	0.0
0	5236	0.010861403308808804
0	5240	0.000805671967100352
0	5240	0.0
0	5254	0.0028152400627732277
0	5270	0.0032061985693871975
0	5298	0.0055842152796685696
0	5300	0.0003967676602769643
0	5350	0.009867382235825062
0	5320	-0.005887971725314856
0	5376	0.01093451026827097
0	5502	0.024482181295752525
0	5510	0.001546431565657258
0	5434	-0.014620444737374783
0	5382	-0.009965632110834122
0	5306	-0.01452266238629818
0	5180	-0.024022571742534637
0	5140	-0.007618370465934277
0	5138	-0.0003806961758527905
0	5158	0.0038064303807914257
0	5174	0.0030443717259913683
0	5226	0.009892827831208706
0	5248	0.004184206482023001
0	5270	0.004182032309472561
0	5278	0.0015198916662484407
0	5288	0.0018986861687153578
0	5536	0.04706239327788353
0	7102	0.29653850197792053
0	8191	0.20376722514629364
1	5944	-0.41277071833610535
0	2472	-0.6348393559455872
0	2934	0.08589329570531845
0	4052	0.21086250245571136
0	5322	0.2413332313299179
0	5622	0.0569782555103302
0	5652	0.005684581585228443
0	5662	0.0018902997253462672
0	5668	0.0011315844021737576
0	5636	-0.006021186709403992
0	5600	-0.006761705968528986
0	5598	-0.00037499298923648894
0	5576	-0.00411920715123415
0	5570	-0.0011229015653952956
0	5568	-0.00037416050327010453
0	5608	0.0074769617058336735
0	5584	-0.004479868803173304
0	5632	0.00894426554441452
0	5660	0.005202881526201963
0	5698	0.00703838374465704
0	5760	0.011444111354649067
0	5818	0.010666273534297943
0	5806	-0.0021981378085911274
0	5830	0.004380761180073023
0	5784	-0.008366831578314304
0	5698	-0.015593741089105606
0	5566	-0.02387397550046444
0	5414	-0.027445245534181595
0	5178	-0.04264366626739502
0	4936	-0.04424050822854042
0	4798	-0.025738585740327835
0	4672	-0.023669084534049034
0	4586	-0.015935566276311874
0	4560	-0.004769067279994488
0	4580	0.0036571540404111147
0	4658	0.01432770024985075
0	4656	-0.0003695582563523203
0	4738	0.015245414339005947
0	4796	0.010845446027815342
0	4846	0.009400617331266403
0	4918	0.013604242354631424
0	4998	0.015181033872067928
0	5028	0.005714575760066509
0	5094	0.012615964747965336
0	5102	0.0015338598750531673
0	5178	0.014615196734666824
0	5182	0.0007713470258750021
0	5212	0.00580009026452899
0	5180	-0.006203554105013609
0	5210	0.005833927541971207
0	5220	0.0019508134573698044
0	5232	0.002349225338548422
0	5200	-0.006288649048656225
0	5224	0.004735284484922886
0	5204	-0.003961860667914152
0	5234	0.0059656379744410515
0	5222	-0.0023936168290674686
0	5248	0.0051980591379106045
0	5302	0.010807925835251808
0	5280	-0.004399589262902737
0	5340	0.011971428990364075
0	5450	0.021868787705898285
0	5412	-0.00751592218875885
0	5354	-0.011409536935389042
0	5348	-0.0011741836788132787
0	5238	-0.02141939289867878
0	5130	-0.020951075479388237
0	5138	0.0015471893129870296
0	5152	0.002700617304071784
0	5114	-0.007313505746424198
0	5164	0.009606517851352692
0	5182	0.0034529061522334814
0	5198	0.003065643133595586
0	5230	0.006124636624008417
0	5236	0.001147373695857823
0	5278	0.008024762384593487
0	5420	0.02711407095193863
0	6016	0.11363057792186737
0	7870	0.3516780734062195
0	7122	-0.1395123302936554
1	3758	-0.6200616955757141
0	2982	-0.1443309187889099
0	4300	0.2486073225736618
0	5420	0.2124619036912918
0	5612	0.036376953125
0	5638	0.004913385957479477
0	5662	0.004523920360952616
0	5654	-0.0015038159908726811
0	5626	-0.005249999929219484
0	5616	-0.0018712107557803392
0	5582	-0.006348811089992523
0	5594	0.002237386768683791
0	5610	0.0029805146623402834
0	5582	-0.00520949624478817
0	5584	0.00037158146733418107
0	5616	0.005936626810580492
0	5674	0.010735041461884975
0	5710	0.006640841253101826
0	5742	0.00588228041306138
0	5806	0.011722183786332607
0	5866	0.01094331406056881
0	5902	0.006538084242492914
0	5884	-0.003254855051636696
0	5876	-0.0014406453119590878
0	5762	-0.020449897274374962
0	5668	-0.01680932752788067
0	5422	-0.04388834163546562
0	5154	-0.04781274497509003
0	4904	-0.044831253588199615
0	4686	-0.03979844972491264
0	4576	-0.020383959636092186
0	4528	-0.008850101381540298
0	4546	0.0032875509932637215
0	4578	0.005835795309394598
0	4650	0.013198093511164188
0	4710	0.011063442565500736
0	4788	0.01446498092263937
0	4860	0.013424820266664028
0	4916	0.010493310168385506
0	4950	0.006399317178875208
0	5016	0.01247432641685009
0	5054	0.007207890972495079
0	5132	0.01484583131968975
0	5152	0.003818202530965209
0	5164	0.0022972074802964926
0	5216	0.009981316514313221
0	5222	0.0011546455789357424
0	5216	-0.0011580029968172312
0	5226	0.0019361583981662989
0	5216	-0.0019426278304308653
0	5216	0.0
0	5228	0.0023500227835029364
0	5252	0.004720815923064947
0	5200	-0.010270996950566769
0	5208	0.0015872176736593246
0	5240	0.006372217554599047
0	5252	0.0023963896092027426
0	5262	0.0019992536399513483
0	5242	-0.003995631355792284
0	5296	0.010763976722955704
0	5282	-0.002779395319521427
0	5282	0.0
0	5332	0.009831423871219158
0	5356	0.004694897215813398
0	5380	0.00467119924724102
0	5374	-0.0011622951133176684
0	5490	0.02237510308623314
0	5484	-0.001152132754214108
0	5454	-0.005737747065722942
0	5384	-0.013342312537133694
0	5278	-0.020148517563939095
0	5152	-0.023910431191325188
0	5156	0.0007585910498164594
0	5162	0.0011377139016985893
0	5154	-0.0015168560203164816
0	5156	0.00037923798663541675
0	5200	0.008346401154994965
0	5182	-0.0034149116836488247
0	5244	0.011765003204345703
0	5264	0.0037947301752865314
0	5284	0.0037935785949230194
0	5534	0.04739935323596001
0	7022	0.2815764248371124
0	8191	0.2187691032886505
1	5734	-0.45138612389564514
0	2298	-0.629215657711029
0	3782	0.27672627568244934
0	5130	0.253683865070343
0	5534	0.07609289884567261
0	5650	0.021808475255966187
0	5662	0.0022510550916194916
0	5658	-0.0007485730457119644
0	5660	0.00037341067218221724
0	5626	-0.006335049401968718
0	5590	-0.006696470081806183
0	5574	-0.002972338581457734
0	5542	-0.005937324371188879
0	5538	-0.0007419268949888647
0	5544	0.0011125189485028386
0	5578	0.006300769280642271
0	5578	0.0
0	5638	0.011085177771747112
0	5678	0.007368065416812897
0	5724	0.008446204476058483
0	5772	0.008783219382166862
0	5850	0.014219132252037525
0	5888	0.006898179184645414
0	5916	0.005061795935034752
0	5900	-0.002879717852920294
0	5870	-0.005378303583711386
0	5726	-0.02572270669043064
0	5474	-0.044896576553583145
0	5182	-0.052041564136743546
0	4886	-0.053337495774030685
0	4662	-0.041181012988090515
0	4488	-0.03220035880804062
0	4396	-0.016798539087176323
0	4370	-0.004729737993329763
0	4400	0.005482656881213188
0	4484	0.015458226203918457
0	4560	0.01408676989376545
0	4602	0.00783816073089838
0	4698	0.01803426444530487
0	4808	0.0207894966006279
0	4866	0.01101851649582386
0	4916	0.00954246986657381
0	4974	0.01111579593271017
0	5004	0.005770488176494837
0	5038	0.006562354974448681
0	5086	0.00929475948214531
0	5130	0.008547340519726276
0	5096	-0.006623978726565838
0	5108	0.002346132881939411
0	5114	0.0011774402810260653
0	5194	0.015762096270918846
0	5166	-0.005537755321711302
0	5154	-0.0023840744979679585
0	5192	0.00758644612506032
0	5182	-0.0020060986280441284
0	5214	0.0064504859037697315
0	5182	-0.006479044444859028
0	5202	0.004064324777573347
0	5218	0.0032574618235230446
0	5204	-0.002849582815542817
0	5244	0.008124136365950108
0	5224	-0.004046125803142786
0	5230	0.0012078429572284222
0	5254	0.0048044840805232525
0	5282	0.005572361405938864
0	5274	-0.0015828419709578156
0	5294	0.003936594817787409
0	5306	0.002350636525079608
0	5378	0.014039283618330956
0	5352	-0.005047433078289032
0	5368	0.0030952165834605694
0	5494	0.02429618127644062
0	5464	-0.005763393361121416
0	5442	-0.004213267937302589
0	5366	-0.014514341950416565
0	5330	-0.006860889028757811
0	5152	-0.03387078270316124
0	5152	0.0
0	5130	-0.004184206482023001
0	5116	-0.002662305487319827
0	5158	0.007986815646290779
0	5166	0.0015216453466564417
0	5182	0.0030432906933128834
0	5198	0.00304275075905025
0	5236	0.007226257584989071
0	5272	0.00684358598664403
0	5438	0.031544942408800125
0	6408	0.1840304583311081
0	8191	0.33571410179138184
1	6642	-0.2863128185272217
0	2420	-0.7735292315483093
0	2476	0.010440034791827202
0	4172	0.32167717814445496
0	5422	0.23868170380592346
0	5676	0.048448316752910614
0	5730	0.01027429848909378
0	5728	-0.00037943225470371544
0	5724	-0.0007567874272353947
0	5696	-0.005283583886921406
0	5686	-0.001883227378129959
0	5654	-0.0060137188993394375
0	5650	-0.0007503704400733113
0	5644	-0.0011244588531553745
0	5630	-0.00262079038657248
0	5660	0.005609399173408747
0	5670	0.0018663796363398433
0	5700	0.005587320774793625
0	5712	0.002227350603789091
0	5768	0.010358413681387901
0	5858	0.016582220792770386
0	5914	0.010271020233631134
0	5984	0.012779708951711655
0	6048	0.011626427993178368
0	6020	-0.005060027353465557
0	6004	-0.0028771974612027407
0	5908	-0.017184078693389893
0	5780	-0.022825486958026886
0	5548	-0.04128726199269295
0	5210	-0.06045970693230629
0	4928	-0.0513555184006691
0	4702	-0.04158999025821686
0	4538	-0.029763704165816307
0	4478	-0.010755001567304134
0	4458	-0.003578457748517394
0	4476	0.003239235607907176
0	4572	0.017401181161403656
0	4626	0.009857132099568844
0	4736	0.02021489106118679
0	4812	0.014051695354282856
0	4860	0.008923370391130447
0	4956	0.017938559874892235
0	4980	0.004504222422838211
0	5004	0.004523181356489658
0	5068	0.012110508978366852
0	5128	0.011393992230296135
0	5152	0.004572996404021978
0	5138	-0.0026763868518173695
0	5182	0.00844173226505518
0	5200	0.0034651814494282007
0	5212	0.002318571787327528
0	5244	0.006208689417690039
0	5246	0.00038973186747170985
0	5228	-0.0035244820173829794
0	5240	0.002362297847867012
0	5256	0.0031659347005188465
0	5248	-0.0015908157220110297
0	5266	0.0035950627643615007
0	5280	0.0028057610616087914
0	5286	0.0012046258198097348
0	5244	-0.008428093045949936
0	5302	0.011614246293902397
0	5314	0.002393362345173955
0	5318	0.0007936927722766995
0	5318	0.0
0	5352	0.006671376060694456
0	5330	-0.004292180296033621
0	5314	-0.0031062732450664043
0	5336	0.004252193961292505
0	5368	0.006161192432045937
0	5366	-0.00038370530819520354
0	5406	0.007649353239685297
0	5466	0.011441211216151714
0	5384	-0.015588168054819107
0	5466	0.015550722368061543
0	5574	0.02043003961443901
0	5554	-0.0037727304734289646
0	5452	-0.019192412495613098
0	5404	-0.00901397131383419
0	5352	-0.009751584380865097
0	5230	-0.022857001051306725
0	5172	-0.010865221731364727
0	5166	-0.0011244940105825663
0	5182	0.003000149969011545
0	5230	0.00900303851813078
0	5236	0.0011254501296207309
0	5230	-0.0011255909921601415
0	5272	0.007880023680627346
0	5306	0.006378827150911093
0	5280	-0.004877133760601282
0	5316	0.006753208115696907
0	5786	0.08812720328569412
0	7482	0.3170488476753235
0	7438	-0.008115685544908047
1	4342	-0.5637016892433167
0	2454	-0.3458044230937958
0	3552	0.2047310620546341
0	5260	0.3220292031764984
0	5640	0.07167015969753265
0	5696	0.010541771538555622
0	5708	0.0022543114610016346
0	5690	-0.0033742408268153667
0	5678	-0.0022455090656876564
0	5682	0.000747514481190592
0	5666	-0.0029845177195966244
0	5630	-0.006706824991852045
0	5594	-0.006704493425786495
0	5618	0.004468552302569151
0	5638	0.0037199612706899643
0	5646	0.001485828892327845
0	5666	0.0037078235764056444
0	5718	0.009614436887204647
0	5750	0.005896733608096838
0	5792	0.007711798883974552
0	5848	0.010244152508676052
0	5910	0.011299160309135914
0	5936	0.00471903569996357
0	5902	-0.0061448002234101295
0	5864	-0.006841751746833324
0	5764	-0.017944514751434326
0	5668	-0.017177006229758263
0	5392	-0.04928043484687805
0	5142	-0.044742994010448456
0	4938	-0.03702717646956444
0	4678	-0.04791625589132309
0	4552	-0.023173123598098755
0	4490	-0.011257853358983994
0	4538	0.00866655446588993
0	4582	0.00797901302576065
0	4638	0.010220469906926155
0	4674	0.006612866185605526
0	4748	0.013679721392691135
0	4822	0.013759590685367584
0	4888	0.012337525375187397
0	4954	0.012398866936564445
0	5006	0.009812554344534874
0	5044	0.00719896936789155
0	5098	0.010265769436955452
0	5116	0.003433236153796315
0	5128	0.002296445658430457
0	5160	0.0061441571451723576
0	5164	0.0007705149473622441
0	5182	0.003479695413261652
0	5208	0.005044690798968077
0	5194	-0.0027266705874353647
0	5154	-0.007823705673217773
0	5172	0.003538106568157673
0	5194	0.004346108064055443
0	5228	0.00674817431718111
0	5206	-0.0043849158100783825
0	5242	0.007202016655355692
0	5230	-0.0024075114633888006
0	5230	0.0
0	5262	0.006423209328204393
0	5264	0.00040058218291960657
0	5306	0.008379442617297173
0	5336	0.005955453496426344
0	5350	0.002763739787042141
0	5346	-0.0007854431169107556
0	5472	0.024618349969387054
0	5474	0.0003886564227286726
0	5432	-0.008119707927107811
0	5388	-0.008469030261039734
0	5298	-0.017260337248444557
0	5172	-0.02410130389034748
0	5160	-0.0022921760100871325
0	5168	0.0015266203554347157
0	5182	0.002669480163604021
0	5182	0.0
0	5212	0.005714866332709789
0	5224	0.002284727990627289
0	5248	0.004567600786685944
0	5244	-0.0007608612650074065
0	5342	0.018633777275681496
0	5438	0.0182380061596632
0	6048	0.11570853739976883
0	7750	0.3210311233997345
0	7466	-0.05271363630890846
1	4044	-0.6263574957847595
0	2842	-0.2216131091117859
0	3518	0.12647175788879395
0	5036	0.28708675503730774
0	5580	0.1030081957578659
0	5608	0.005290205590426922
0	5650	0.007918054237961769
0	5672	0.004137516021728516
0	5646	-0.004878598265349865
0	5600	-0.008614662103354931
0	5604	0.0007479338091798127
0	5582	-0.004107031971216202
0	5590	0.0014924444258213043
0	5588	-0.0003728421579580754
0	5580	-0.0014899243833497167
0	5594	0.0026042636018246412
0	5610	0.002970848698168993
0	5648	0.007036689668893814
0	5692	0.008123276755213737
0	5736	0.008097166195511818
0	5804	0.012471419759094715
0	5814	0.0018270846921950579
0	5840	0.0047330670058727264
0	5806	-0.006166346371173859
0	5724	-0.014821777120232582
0	5598	-0.022709250450134277
0	5432	-0.0298725925385952
0	5228	-0.03671221807599068
0	5002	-0.04087242856621742
0	4778	-0.04119313135743141
0	4648	-0.024307243525981903
0	4594	-0.010058987885713577
0	4618	0.004422550089657307
0	4620	0.00036607240326702595
0	4632	0.002202023519203067
0	4700	0.012550911866128445
0	4776	0.01410629227757454
0	4842	0.012316803447902203
0	4912	0.013131072744727135
0	4970	0.010930197313427925
0	5008	0.007189617026597261
0	5088	0.015193142928183079
0	5096	0.0015240804059430957
0	5128	0.006115506403148174
0	5170	0.008050192147493362
0	5210	0.007686985656619072
0	5216	0.0011558912228792906
0	5196	-0.003862743964418769
0	5210	0.002711811801418662
0	5202	-0.001554444432258606
0	5212	0.0019497991306707263
0	5206	-0.0011743981158360839
0	5182	-0.004716301336884499
0	5178	-0.0007894529262557626
0	5204	0.0051527321338653564
0	5226	0.00437503308057785
0	5214	-0.0023922808468341827
0	5240	0.005190794821828604
0	5298	0.011578541249036789
0	5368	0.013946630991995335
0	5310	-0.011510677635669708
0	5354	0.008694162592291832
0	5470	0.022806810215115547
0	5416	-0.010558010078966618
0	5382	-0.006613327655941248
0	5364	-0.0034842307213693857
0	5254	-0.021201686933636665
0	5158	-0.01844663918018341
0	5118	-0.007670574355870485
0	5112	-0.0011490730103105307
0	5110	-0.0003826774482149631
0	5182	0.013767432421445847
0	5172	-0.0019109983695670962
0	5138	-0.006494250614196062
0	5228	0.017189569771289825
0	5238	0.0019092471338808537
0	5276	0.007253846153616905
0	5612	0.06411479413509369
0	6774	0.22114518284797668
0	8191	0.26702597737312317
1	5850	-0.43301868438720703
0	2380	-0.6393367052078247
0	3168	0.14775092899799347
0	4804	0.3106624186038971
0	5500	0.13247805833816528
0	5620	0.02279822900891304
0	5622	0.00037902474286966026
0	5616	-0.0011341512436047196
0	5588	-0.005280195735394955
0	5584	-0.0007529411814175546
0	5580	-0.0007519220816902816
0	5540	-0.007506520953029394
0	5530	-0.0018744494300335646
0	5534	0.0007494987803511322
0	5544	0.0018723668763414025
0	5548	0.0007481903303414583
0	5570	0.004110331181436777
0	5602	0.005966920871287584
0	5648	0.008553842082619667
0	5698	0.009267210960388184
0	5770	0.013296645134687424
0	5842	0.013242840766906738
0	5864	0.004030115902423859
0	5854	-0.0018241627840325236
0	5774	-0.014530043117702007
0	5704	-0.012671900913119316
0	5536	-0.03032728098332882
0	5278	-0.0465012863278389
0	5022	-0.046233586966991425
0	4740	-0.05147206410765648
0	4542	-0.036915045231580734
0	4434	-0.020300496369600296
0	4404	-0.005567377898842096
0	4422	0.0033150799572467804
0	4484	0.01144544966518879
0	4534	0.009288270957767963
0	4606	0.01346566341817379
0	4676	0.013175064697861671
0	4772	0.018175851553678513
0	4790	0.003425613511353731
0	4888	0.018744979053735733
0	4982	0.018059557303786278
0	5000	0.0034706154838204384
0	5084	0.016251564025878906
0	5126	0.008149432018399239
0	5110	-0.003112961770966649
0	5132	0.004292515106499195
0	5154	0.004304778296500444
0	5152	-0.0003924903576262295
0	5112	-0.007875359617173672
0	5160	0.009486915543675423
0	5152	-0.0015875325771048665
0	5152	0.0
0	5182	0.006008973345160484
0	5182	0.0
0	5168	-0.0028280543629080057
0	5174	0.001216413453221321
0	5208	0.006909913383424282
0	5216	0.0016266334569081664
0	5220	0.000812248676083982
0	5244	0.004857709631323814
0	5266	0.004431909881532192
0	5270	0.0008013248443603516
0	5266	-0.0007967175333760679
0	5254	-0.0023768336977809668
0	5318	0.012612328864634037
0	5342	0.004705390427261591
0	5382	0.0078047760762274265
0	5350	-0.006215281784534454
0	5446	0.018576331436634064
0	5482	0.0069367727264761925
0	5434	-0.009213876910507679
0	5402	-0.006124870851635933
0	5350	-0.009927453473210335
0	5224	-0.02401433140039444
0	5142	-0.015618651174008846
0	5118	-0.004570383578538895
0	5152	0.006475286092609167
0	5180	0.00533265620470047
0	5182	0.00038083631079643965
0	5194	0.0022840031888335943
0	5226	0.006089360918849707
0	5260	0.006466911174356937
0	5268	0.0015205849194899201
0	5322	0.010258358903229237
0	6166	0.1601923406124115
0	8146	0.3734486997127533
1	7044	-0.20403629541397095
0	2408	-0.8487422466278076
0	2682	0.051037512719631195
0	4858	0.4118092358112335
0	5530	0.12748681008815765
0	5664	0.025379110127687454
0	5692	0.0052899387665092945
0	5696	0.0007536836201325059
0	5674	-0.004133784212172031
0	5662	-0.0022497749887406826
0	5644	-0.0033679273910820484
0	5630	-0.0026152257341891527
0	5638	0.001491813687607646
0	5652	0.002607561880722642
0	5654	0.00037211610469967127
0	5644	-0.0018580453470349312
0	5680	0.006678952369838953
0	5684	0.0007405944052152336
0	5726	0.007754228077828884
0	5790	0.011773651465773582
0	5862	0.013191000558435917
0	5950	0.01605273224413395
0	5996	0.008352095261216164
0	6000	0.0007227087044157088
0	5994	-0.0010788262588903308
0	5982	-0.0021477662958204746
0	5842	-0.024949803948402405
0	5682	-0.028417164459824562
0	5420	-0.04643414169549942
0	5062	-0.06372904032468796
0	4830	-0.042069122195243835
0	4614	-0.03969907388091087
0	4530	-0.015232660807669163
0	4466	-0.01147762406617403
0	4480	0.0025166277773678303
0	4532	0.009406656958162785
0	4602	0.012749835848808289
0	4674	0.01320148166269064
0	4754	0.014760510995984077
0	4824	0.012988940812647343
0	4896	0.013429662212729454
0	4978	0.015366355888545513
0	5010	0.00602114899083972
0	5046	0.006800579372793436
0	5080	0.006447371561080217
0	5112	0.006090211216360331
0	5152	0.0076385438442230225
0	5154	0.0003832151705864817
0	5182	0.005383234936743975
0	5210	0.005402068141847849
0	5218	0.0015492266975343227
0	5238	0.003889234736561775
0	5230	-0.0015629070112481713
0	5232	0.0003926855861209333
0	5250	0.003552024019882083
0	5252	0.00039661029586568475
0	5268	0.0031882673501968384
0	5238	-0.006000880151987076
0	5284	0.009228670038282871
0	5294	0.002008059062063694
0	5332	0.007618793286383152
0	5318	-0.0027975381817668676
0	5312	-0.0011933490168303251
0	5304	-0.0015829255571588874
0	5316	0.0023613369558006525
0	5336	0.003914098720997572
0	5334	-0.00038936769124120474
0	5348	0.002712687710300088
0	5380	0.006173554342240095
0	5364	-0.003074400592595339
0	5410	0.008808435872197151
0	5448	0.007252738811075687
0	5406	-0.00799228623509407
0	5500	0.01784268021583557
0	5578	0.014763221144676208
0	5526	-0.009811320342123508
0	5480	-0.008656705729663372
0	5464	-0.003004845231771469
0	5332	-0.02474195696413517
0	5228	-0.019475411623716354
0	5182	-0.008613157086074352
0	5182	0.0
0	5224	0.007868705317378044
0	5220	-0.0007494285819120705
0	5242	0.004122165963053703
0	5266	0.004497133195400238
0	5312	0.008618751540780067
0	5310	-0.00037462537875398993
0	5306	-0.0007489140261895955
0	5650	0.06439776718616486
0	6876	0.2290019392967224
0	8191	0.24328725039958954
1	5246	-0.535366952419281
0	2140	-0.5648607611656189
0	3066	0.17169663310050964
0	4764	0.3192789554595947
0	5632	0.16379934549331665
0	5728	0.018082160502672195
0	5784	0.010522821918129921
0	5754	-0.00562299694865942
0	5728	-0.004861418157815933
0	5688	-0.007464311085641384
0	5706	0.0033539331052452326
0	5680	-0.0048355599865317345
0	5660	-0.0037155153695493937
0	5666	0.0011140888091176748
0	5666	0.0
0	5676	0.0018530759261921048
0	5692	0.0029610437341034412
0	5686	-0.0011079309042543173
0	5756	0.012889524921774864
0	5790	0.0062386468052864075
0	5840	0.009140489622950554
0	5930	0.01639135181903839
0	5980	0.009067224338650703
0	5982	0.00036107815685682
0	5952	-0.005392935127019882
0	5926	-0.004656021483242512
0	5816	-0.01962638460099697
0	5658	-0.028105376288294792
0	5402	-0.04553566500544548
0	5142	-0.04665490239858627
0	4898	-0.04459716007113457
0	4686	-0.03883068263530731
0	4534	-0.02741471864283085
0	4472	-0.011084492318332195
0	4450	-0.003940063528716564
0	4520	0.01262565515935421
0	4590	0.012718022800981998
0	4618	0.005124262999743223
0	4698	0.01474292017519474
0	4740	0.0077893175184726715
0	4818	0.014551153406500816
0	4844	0.004877316765487194
0	4888	0.008297295309603214
0	4970	0.015538542531430721
0	5032	0.011800533160567284
0	5082	0.00955499242991209
0	5130	0.009207631461322308
0	5152	0.0042353845201432705
0	5166	0.002704512793570757
0	5176	0.0019391620298847556
0	5164	-0.0023362666834145784
0	5196	0.00625749584287405
0	5208	0.0023578419350087643
0	5238	0.005924560595303774
0	5182	-0.011113610118627548
0	5226	0.008776828646659851
0	5232	0.0012024369789287448
0	5236	0.0008047642186284065
0	5258	0.0044387648813426495
0	5254	-0.000807830598205328
0	5266	0.0024216659367084503
0	5290	0.004831371828913689
0	5284	-0.0012029673671349883
0	5298	0.002792924642562866
0	5290	-0.0015872385120019317
0	5328	0.007497730664908886
0	5366	0.00745809730142355
0	5384	0.003514938522130251
0	5348	-0.006994999945163727
0	5418	0.01354436669498682
0	5524	0.020420745015144348
0	5482	-0.008054721169173717
0	5430	-0.009932003915309906
0	5398	-0.006090984214097261
0	5260	-0.026196232065558434
0	5182	-0.01478523574769497
0	5172	-0.001894345972687006
0	5176	0.0007575374911539257
0	5230	0.01022520661354065
0	5210	-0.003785584354773164
0	5232	0.004163249861449003
0	5250	0.003404834773391485
0	5264	0.0026473035104572773
0	5312	0.009073266759514809
0	5336	0.00453451881185174
0	5956	0.11702823638916016
0	7374	0.26643115282058716
0	8191	0.15147581696510315
1	5406	-0.5070919990539551
0	2666	-0.49845069646835327
0	3326	0.12197902053594589
0	4774	0.27085164189338684
0	5506	0.1373641937971115
0	5640	0.025111032649874687
0	5686	0.00860182847827673
0	5670	-0.0029845735989511013
0	5670	0.0
0	5654	-0.0029726333450526
0	5628	-0.004822465591132641
0	5616	-0.00222190679050982
0	5576	-0.007397315930575132
0	5616	0.007394945248961449
0	5572	-0.0081277284771204
0	5590	0.003322075353935361
0	5612	0.004055523779243231
0	5644	0.005886212456971407
0	5698	0.009904924780130386
0	5700	0.00036567304050549865
0	5792	0.016767412424087524
0	5810	0.003269418142735958
0	5814	0.0007239076076075435
0	5826	0.002164124744012952
0	5810	-0.0028755429666489363
0	5746	-0.011464671231806278
0	5590	-0.027872903272509575
0	5428	-0.028901219367980957
0	5180	-0.04438319802284241
0	4986	-0.03517955169081688
0	4772	-0.039572957903146744
0	4644	-0.023762669414281845
0	4568	-0.013938475400209427
0	4556	-0.0021842275746166706
0	4604	0.008748481050133705
0	4610	0.0010995857883244753
0	4684	0.013647429645061493
0	4766	0.015216557309031487
0	4834	0.012689566239714622
0	4874	0.007503470405936241
0	4920	0.008671282790601254
0	4992	0.013633092865347862
0	5064	0.013686997815966606
0	5100	0.006865774281322956
0	5116	0.0030614978168159723
0	5158	0.00805987324565649
0	5162	0.000769734033383429
0	5182	0.0038598114624619484
0	5204	0.00425844918936491
0	5208	0.0007767392671667039
0	5182	-0.005064934957772493
0	5182	0.0
0	5182	0.0
0	5164	-0.0035495958290994167
0	5200	0.0071302191354334354
0	5172	-0.0055681499652564526
0	5198	0.005190173164010048
0	5206	0.0016011528205126524
0	5216	0.0020044096745550632
0	5274	0.011622780002653599
0	5286	0.0024000960402190685
0	5350	0.01275679748505354
0	5306	-0.008729349821805954
0	5394	0.017373906448483467
0	5462	0.013351659290492535
0	5416	-0.008981567807495594
0	5374	-0.008157768286764622
0	5304	-0.013535811565816402
0	5160	-0.027748873457312584
0	5112	-0.00923029612749815
0	5134	0.004224108066409826
0	5162	0.005368784070014954
0	5178	0.0030645469669252634
0	5166	-0.0022967387922108173
0	5178	0.002295771846547723
0	5202	0.004589729011058807
0	5236	0.006500293500721455
0	5278	0.008025988936424255
0	5288	0.0019097818294540048
0	5628	0.06489787995815277
0	6616	0.1880829930305481
0	8191	0.297124981880188
1	4870	-0.6148747205734253
0	2478	-0.44372713565826416
0	3362	0.16675575077533722
0	5026	0.31756332516670227
0	5596	0.10888183116912842
0	5648	0.009907970204949379
0	5690	0.00798018928617239
0	5684	-0.0011366147082298994
0	5674	-0.0018894661916419864
0	5642	-0.006031552795320749
0	5614	-0.005267944186925888
0	5610	-0.000751112645957619
0	5622	0.002250295365229249
0	5612	-0.0018733724718913436
0	5612	0.0
0	5608	-0.0007473236764781177
0	5620	0.0022377343848347664
0	5640	0.0037189237773418427
0	5654	0.002594754798337817
0	5732	0.014410197734832764
0	5802	0.012886992655694485
0	5874	0.013204628601670265
0	5890	0.002921716310083866
0	5922	0.005818217061460018
0	5908	-0.002534410683438182
0	5832	-0.013702664524316788
0	5776	-0.01006319373846054
0	5668	-0.01935102418065071
0	5472	-0.03511013835668564
0	5192	-0.050502318888902664
0	4946	-0.04518459364771843
0	4668	-0.05103851854801178
0	4514	-0.027899224311113358
0	4470	-0.007916136644780636
0	4494	0.004332338459789753
0	4550	0.010176267474889755
0	4586	0.0065856873989105225
0	4668	0.015102401375770569
0	4710	0.007783927954733372
0	4808	0.01827131025493145
0	4852	0.008246186189353466
0	4958	0.019960831850767136
0	4996	0.0071851760149002075
0	5038	0.007972967810928822
0	5094	0.010669376701116562
0	5116	0.0042053754441440105
0	5152	0.006903164088726044
0	5192	0.007693195715546608
0	5204	0.002314606448635459
0	5206	0.00038688708445988595
0	5182	-0.004658445715904236
0	5212	0.005846509709954262
0	5220	0.0015658028423786163
0	5200	-0.0039316932670772076
0	5206	0.001185114961117506
0	5216	0.0019843631889671087
0	5238	0.004383459687232971
0	5244	0.0011997760739177465
0	5226	-0.0036095292307436466
0	5260	0.006829229183495045
0	5254	-0.0012046096380800009
0	5258	0.0008014211780391634
0	5254	-0.0007982757524587214
0	5262	0.0015887306071817875
0	5298	0.0071120006032288074
0	5320	0.004323333036154509
0	5342	0.004301636014133692
0	5402	0.011674212291836739
0	5378	-0.004647559951990843
0	5494	0.022366764023900032
0	5526	0.006143056321889162
0	5436	-0.01720315031707287
0	5426	-0.0019056573510169983
0	5314	-0.021285220980644226
0	5196	-0.02238635905086994
0	5168	-0.00530859362334013
0	5152	-0.0030324854888021946
0	5182	0.005685910116881132
0	5212	0.005686269607394934
0	5230	0.0034115894231945276
0	5218	-0.002274048049002886
0	5234	0.003031374653801322
0	5252	0.003409822704270482
0	5294	0.007954645901918411
0	5702	0.0772278681397438
0	7166	0.2762472629547119
0	8191	0.19106736779212952
1	5534	-0.4863598346710205
0	2148	-0.6187073588371277
0	3300	0.2145211398601532
0	5142	0.3472348749637604
0	5620	0.09017109870910645
0	5676	0.010539986193180084
0	5684	0.0015017364639788866
0	5698	0.002621117513626814
0	5660	-0.007096746005117893
0	5650	-0.0018636203603819013
0	5646	-0.0007440245826728642
0	5636	-0.001857251743786037
0	5614	-0.00407943781465292
0	5606	-0.001482332474552095
0	5604	-0.00037040008464828134
0	5638	0.006290277931839228
0	5606	-0.00591253163293004
0	5674	0.01254157442599535
0	5710	0.006620202679187059
0	5768	0.010630562901496887
0	5834	0.012051492929458618
0	5888	0.009821336716413498
0	5934	0.008332176133990288
0	5964	0.00541102746501565
0	5934	-0.005386866629123688
0	5902	-0.005722017493098974
0	5798	-0.018524784594774246
0	5636	-0.028769824653863907
0	5300	-0.059694066643714905
0	5004	-0.053175244480371475
0	4742	-0.04798300564289093
0	4556	-0.03422977030277252
0	4446	-0.01994873769581318
0	4402	-0.007924595847725868
0	4476	0.013387204147875309
0	4492	0.0029146375600248575
0	4562	0.01284387893974781
0	4684	0.022539721801877022
0	4784	0.018591277301311493
0	4842	0.010841797105967999
0	4906	0.012023896910250187
0	4944	0.007172427140176296
0	5018	0.014028435572981834
0	5078	0.011417407542467117
0	5100	0.004200450610369444
0	5080	-0.0038308794610202312
0	5114	0.0065357801504433155
0	5134	0.00385673507116735
0	5178	0.008514370769262314
0	5164	-0.0027184465434402227
0	5164	0.0
0	5182	0.0035242061130702496
0	5216	0.00668764766305685
0	5182	-0.006719278637319803
0	5182	0.0
0	5182	0.0
0	5214	0.006419343873858452
0	5218	0.0008055637590587139
0	5236	0.003635237691923976
0	5246	0.002020447049289942
0	5254	0.0016137274214997888
0	5262	0.0016081910580396652
0	5278	0.0032012376468628645
0	5300	0.004377412609755993
0	5298	-0.00039559046854265034
0	5314	0.0031476649455726147
0	5368	0.010566412471234798
0	5404	0.007007435895502567
0	5390	-0.0027124423068016768
0	5364	-0.005017755087465048
0	5468	0.020003847777843475
0	5524	0.010732629336416721
0	5408	-0.02214980311691761
0	5422	0.0026666326448321342
0	5346	-0.014444459229707718
0	5216	-0.024669179692864418
0	5138	-0.014788785949349403
0	5164	0.004928847309201956
0	5170	0.0011372107546776533
0	5164	-0.0011372683802619576
0	5222	0.010993593372404575
0	5264	0.007957961410284042
0	5260	-0.0007575087947770953
0	5292	0.00605838792398572
0	5304	0.002270319266244769
0	5700	0.07486294209957123
0	7080	0.2600371837615967
0	8191	0.20692352950572968
1	5322	-0.5246667265892029
0	2060	-0.596223771572113
0	3968	0.3556450307369232
0	5358	0.2611783742904663
0	5684	0.06121797487139702
0	5722	0.007117748726159334
0	5738	0.002989071188494563
0	5698	-0.007452258840203285
0	5702	0.000743452983442694
0	5676	-0.004822465591132641
0	5660	-0.002962688682600856
0	5644	-0.0029577594250440598
0	5644	0.0
0	5658	0.002580787753686309
0	5632	-0.004788948688656092
0	5634	0.0003678747161757201
0	5664	0.005510957445949316
0	5684	0.0036668318789452314
0	5708	0.004387648776173592
0	5790	0.014939241111278534
0	5828	0.006896843668073416
0	5880	0.009400364942848682
0	5912	0.005759988445788622
0	5910	-0.0003585150116123259
0	5896	-0.002499955240637064
0	5806	-0.016010532155632973
0	5720	-0.015252464450895786
0	5536	-0.03255312144756317
0	5242	-0.05206457898020744
0	5012	-0.04117755591869354
0	4790	-0.04051390662789345
0	4596	-0.03551899269223213
0	4472	-0.022356843575835228
0	4466	-0.0010785158956423402
0	4464	-0.00036143706529401243
0	4524	0.010923391208052635
0	4606	0.015037961304187775
0	4682	0.01403474248945713
0	4756	0.013751409016549587
0	4812	0.010467811487615108
0	4886	0.013907334767282009
0	4950	0.012086570262908936
0	5010	0.011380880139768124
0	5052	0.007998679764568806
0	5096	0.008411929942667484
0	5152	0.010742787271738052
0	5110	-0.00808200053870678
0	5132	0.004248525947332382
0	5162	0.005814103875309229
0	5152	-0.0019448946695774794
0	5162	0.0019529724959284067
0	5158	-0.000784590607509017
0	5166	0.0015766238793730736
0	5168	0.0003960971371270716
0	5182	0.002786328550428152
0	5178	-0.0007998826913535595
0	5192	0.0028113580774515867
0	5232	0.008060940541327
0	5242	0.0020193587988615036
0	5226	-0.0032309740781784058
0	5290	0.012905307114124298
0	5338	0.009646560996770859
0	5326	-0.0023997121024876833
0	5334	0.0015907523920759559
0	5442	0.021352313458919525
0	5474	0.006286095827817917
0	5402	-0.014056277461349964
0	5382	-0.00388440047390759
0	5268	-0.02204119600355625
0	5152	-0.022354118525981903
0	5116	-0.00692236702889204
0	5160	0.008448216132819653
0	5174	0.0026844607200473547
0	5190	0.0030647427774965763
0	5208	0.0034448003862053156
0	5200	-0.0015299292281270027
0	5240	0.007647306192666292
0	5258	0.003438439453020692
0	5320	0.011834018863737583
0	5776	0.0869498923420906
0	7056	0.2431056648492813
0	8191	0.2130121886730194
1	5328	-0.5273110270500183
0	2440	-0.5313870310783386
0	3016	0.10778644680976868
0	4320	0.2473585307598114
0	5478	0.22086170315742493
0	5638	0.030460912734270096
0	5658	0.003797828918322921
0	5676	0.003409069497138262
0	5694	0.0033994121477007866
0	5646	-0.009042101912200451
0	5634	-0.002256162231788039
0	5646	0.002251815516501665
0	5608	-0.007116860244423151
0	5612	0.0007483676308766007
0	5614	0.0003738620434887707
0	5594	-0.003733688499778509
0	5600	0.0011186307528987527
0	5636	0.006697965320199728
0	5690	0.010016880929470062
0	5702	0.002218100940808654
0	5756	0.00994823221117258
0	5832	0.01395135372877121
0	5846	0.0025599298533052206
0	5860	0.002550013829022646
0	5802	-0.010522178374230862
0	5770	-0.005785677116364241
0	5684	-0.01550117414444685
0	5478	-0.03704969212412834
0	5290	-0.03387285768985748
0	5098	-0.03496440127491951
0	4892	-0.03823168948292732
0	4718	-0.0323801264166832
0	4600	-0.021652964875102043
0	4604	0.0007269555353559554
0	4570	-0.006168508902192116
0	4620	0.0091214245185256
0	4636	0.0029370372649282217
0	4716	0.014777597039937973
0	4776	0.01114910002797842
0	4848	0.01345542911440134
0	4922	0.013898279517889023
0	4980	0.010942020453512669
0	5034	0.01023024320602417
0	5130	0.01825326308608055
0	5154	0.004577299114316702
0	5174	0.003825603751465678
0	5158	-0.0030687006656080484
0	5204	0.008847515098750591
0	5182	-0.004243172705173492
0	5220	0.007353130728006363
0	5182	-0.007376063149422407
0	5198	0.0031172879971563816
0	5182	-0.0031301763374358416
0	5196	0.0027508153580129147
0	5242	0.009077872149646282
0	5272	0.005942241288721561
0	5292	0.003974562976509333
0	5280	-0.0023909464944154024
0	5364	0.016758661717176437
0	5424	0.0119645856320858
0	5360	-0.012734629213809967
0	5336	-0.0047607081942260265
0	5254	-0.01619955711066723
0	5118	-0.026752345263957977
0	5106	-0.0023525722790509462
0	5100	-0.001172180287539959
0	5164	0.012464295141398907
0	5154	-0.0019408933585509658
0	5178	0.00464498158544302
0	5172	-0.0011582415318116546
0	5218	0.008861376903951168
0	5248	0.005768195725977421
0	5272	0.004606643691658974
0	5412	0.026831232011318207
0	5928	0.09871441125869751
0	7680	0.333523690700531
0	7454	-0.042349591851234436
1	4426	-0.5593871474266052
0	2938	-0.27621370553970337
0	4076	0.21421848237514496
0	5332	0.23814037442207336
0	5622	0.05493256449699402
0	5654	0.006045340094715357
0	5684	0.005650710314512253
0	5680	-0.0007511266740038991
0	5656	-0.004494438413530588
0	5664	0.00149456353392452
0	5628	-0.006709991488605738
0	5622	-0.0011159192072227597
0	5578	-0.008170339278876781
0	5632	0.01001768559217453
0	5602	-0.005556035786867142
0	5600	-0.00036979513242840767
0	5640	0.007380164694041014
0	5680	0.00735654728487134
0	5722	0.007697288878262043
0	5770	0.008763601072132587
0	5822	0.009459016844630241
0	5870	0.0086961779743433
0	5904	0.006134157534688711
0	5866	-0.006825774908065796
0	5844	-0.0039364914409816265
0	5752	-0.016403380781412125
0	5598	-0.027379725128412247
0	5366	-0.041201960295438766
0	5106	-0.04632874205708504
0	4872	-0.04234323278069496
0	4704	-0.030881216749548912
0	4590	-0.020919477567076683
0	4544	-0.008356748148798943
0	4544	0.0
0	4596	0.00946510024368763
0	4650	0.009890713728964329
0	4726	0.014006118290126324
0	4828	0.018908964470028877
0	4850	0.004099990241229534
0	4936	0.016107885167002678
0	5010	0.01392355840653181
0	5050	0.007555533200502396
0	5082	0.006066273897886276
0	5140	0.011029691435396671
0	5152	0.0022891443222761154
0	5180	0.005356664769351482
0	5182	0.00038364643114618957
0	5182	0.0
0	5196	0.002702041994780302
0	5164	-0.0061970665119588375
0	5194	0.005832566414028406
0	5194	0.0
0	5182	-0.0023529103491455317
0	5174	-0.0015760441310703754
0	5182	0.0015832388307899237
0	5210	0.005565641447901726
0	5218	0.0015959144802764058
0	5226	0.0015999573515728116
0	5278	0.01040943805128336
0	5312	0.006798367947340012
0	5322	0.001993673387914896
0	5328	0.0011913112830370665
0	5446	0.023315241560339928
0	5428	-0.003535558469593525
0	5386	-0.008202163502573967
0	5374	-0.0023314855061471462
0	5266	-0.020885437726974487
0	5136	-0.025052674114704132
0	5106	-0.005769970361143351
0	5152	0.008832791820168495
0	5138	-0.0026845294050872326
0	5158	0.0038319069426506758
0	5156	-0.0003829266061075032
0	5182	0.004975695628672838
0	5220	0.007270222995430231
0	5254	0.006502116098999977
0	5266	0.002293782541528344
0	5562	0.05654970183968544
0	6590	0.19592148065567017
0	8191	0.3024483025074005
1	5944	-0.41654565930366516
0	2230	-0.6853199005126953
0	3130	0.16915491223335266
0	4838	0.3251991271972656
0	5508	0.12783901393413544
0	5626	0.022468343377113342
0	5642	0.0030385323334485292
0	5672	0.005681997165083885
0	5648	-0.004532834514975548
0	5624	-0.004522300790995359
0	5628	0.0007522426312789321
0	5628	0.0
0	5612	-0.002997583243995905
0	5630	0.0033687888644635677
0	5602	-0.0052337427623569965
0	5600	-0.0003733363118954003
0	5622	0.004100932739675045
0	5662	0.007439784239977598
0	5712	0.009269502013921738
0	5790	0.014406471513211727
0	5858	0.012510349042713642
0	5900	0.007693012244999409
0	5928	0.005105544812977314
0	5934	0.0010889357654377818
0	5928	-0.001084004295989871
0	5826	-0.01834983378648758
0	5664	-0.02904422953724861
0	5442	-0.03970690816640854
0	5202	-0.0429571196436882
0	4960	-0.04367678984999657
0	4698	-0.048223815858364105
0	4542	-0.02893461287021637
0	4496	-0.008411762304604053
0	4456	-0.00725417397916317
0	4512	0.010179350152611732
0	4550	0.006949354894459248
0	4680	0.023931078612804413
0	4746	0.01222176942974329
0	4794	0.008939657360315323
0	4858	0.011983074247837067
0	4936	0.014674525707960129
0	4992	0.010581477545201778
0	5030	0.007209166884422302
0	5066	0.006854966748505831
0	5096	0.005732995457947254
0	5154	0.011119632050395012
0	5166	0.0023071893956512213
0	5156	-0.0019282932626083493
0	5206	0.009672925807535648
0	5212	0.0011645510094240308
0	5196	-0.003117126179859042
0	5174	-0.004304553847759962
0	5180	0.0011795543832704425
0	5212	0.006321944762021303
0	5226	0.002779064467176795
0	5220	-0.0011965857120230794
0	5252	0.006407603621482849
0	5266	0.0028110567945986986
0	5268	0.0004020531487185508
0	5316	0.009645010344684124
0	5348	0.006414711009711027
0	5328	-0.00399185623973608
0	5334	0.001191327115520835
0	5454	0.023695122450590134
0	5504	0.009808537550270557
0	5426	-0.015202702954411507
0	5414	-0.002325641456991434
0	5260	-0.029704879969358444
0	5172	-0.016918305307626724
0	5100	-0.013808798976242542
0	5156	0.01072358712553978
0	5154	-0.00038244816823862493
0	5176	0.004202590323984623
0	5182	0.0011450963793322444
0	5160	-0.0041955909691751
0	5236	0.014487965032458305
0	5248	0.002286382019519806
0	5280	0.006093844771385193
0	5532	0.04795128479599953
0	6554	0.1940678209066391
0	8191	0.3082320988178253
1	6718	-0.2722350060939789
0	2078	-0.8494693636894226
0	2974	0.16720056533813477
0	4804	0.3463132381439209
0	5602	0.15141837298870087
0	5706	0.019686156883835793
0	5702	-0.0007549971342086792
0	5718	0.003011726774275303
0	5690	-0.005255682393908501
0	5678	-0.0022471770644187927
0	5664	-0.002616317244246602
0	5646	-0.0033568101935088634
0	5644	-0.0003722569381352514
0	5636	-0.0014872744213789701
0	5618	-0.0033436324447393417
0	5668	0.009276839904487133
0	5672	0.0007409831741824746
0	5706	0.006282374262809753
0	5722	0.0029467197600752115
0	5782	0.011008164845407009
0	5854	0.013159417547285557
0	5924	0.012739548459649086
0	5972	0.008696230128407478
0	5980	0.001442489679902792
0	5972	-0.0014354153536260128
0	5860	-0.020007740706205368
0	5736	-0.02207099460065365
0	5578	-0.02804684080183506
0	5288	-0.05146436765789986
0	4992	-0.05292550474405289
0	4746	-0.04484032467007637
0	4560	-0.03431481122970581
0	4502	-0.01053945068269968
0	4450	-0.009362508542835712
0	4490	0.007217263802886009
0	4516	0.004722807556390762
0	4606	0.01646682806313038
0	4644	0.006999447476118803
0	4782	0.02558777667582035
0	4824	0.007831535302102566
0	4898	0.013872051611542702
0	4952	0.010171535424888134
0	4994	0.007945816963911057
0	5044	0.009498239494860172
0	5054	0.0019067958928644657
0	5108	0.010333741083741188
0	5152	0.008450271561741829
0	5114	-0.007322337012737989
0	5166	0.010058286599814892
0	5178	0.002329493872821331
0	5182	0.0007795447017997503
0	5210	0.005480739288032055
0	5182	-0.005506391171365976
0	5194	0.002372166607528925
0	5206	0.0023845164105296135
0	5222	0.0031955689191818237
0	5234	0.002406899817287922
0	5254	0.004025008995085955
0	5266	0.002420265693217516
0	5262	-0.0008068745955824852
0	5282	0.0040270620957016945
0	5304	0.00441388925537467
0	5344	0.007985519245266914
0	5368	0.004764614626765251
0	5342	-0.005130498670041561
0	5446	0.020407630130648613
0	5558	0.021844565868377686
0	5460	-0.01899641938507557
0	5446	-0.002699540928006172
0	5394	-0.009984254837036133
0	5200	-0.03711355850100517
0	5156	-0.008401328697800636
0	5118	-0.007246284279972315
0	5164	0.008764909580349922
0	5180	0.0030463424045592546
0	5200	0.0038048855494707823
0	5218	0.003422400215640664
0	5196	-0.004181184805929661
0	5262	0.012537041679024696
0	5286	0.004556154366582632
0	5370	0.01593565009534359
0	6196	0.1565144807100296
0	8191	0.37568262219429016
1	7166	-0.18944178521633148
0	2420	-0.8666329979896545
0	2578	0.029348935931921005
0	4208	0.3078162670135498
0	5444	0.2349288910627365
0	5712	0.050878025591373444
0	5718	0.0011358545161783695
0	5722	0.0007550636073574424
0	5744	0.004141384270042181
0	5696	-0.009010869078338146
0	5664	-0.005994043312966824
0	5688	0.0044872392900288105
0	5662	-0.004850716330111027
0	5648	-0.00260842009447515
0	5648	0.0
0	5638	-0.0018599460599943995
0	5640	0.0003715469501912594
0	5666	0.0048227631486952305
0	5702	0.0066584874875843525
0	5736	0.006267473567277193
0	5804	0.012487527914345264
0	5862	0.010609562508761883
0	5896	0.006193642504513264
0	5958	0.01124675665050745
0	5928	-0.005417737644165754
0	5918	-0.0017979898257181048
0	5846	-0.012894829735159874
0	5726	-0.021419774740934372
0	5524	-0.035980407148599625
0	5152	-0.0665263831615448
0	4902	-0.045533470809459686
0	4652	-0.04616805166006088
0	4532	-0.021860312670469284
0	4466	-0.011882186867296696
0	4476	0.0017975481459870934
0	4540	0.011571423150599003
0	4630	0.016388069838285446
0	4674	0.008065205998718739
0	4764	0.01660332828760147
0	4834	0.012991994619369507
0	4894	0.011195700615644455
0	4954	0.011249578557908535
0	4986	0.006027424708008766
0	5022	0.006809755694121122
0	5076	0.010255112312734127
0	5078	0.0003811992355622351
0	5086	0.0015302414540201426
0	5116	0.005758746527135372
0	5164	0.00924653559923172
0	5162	-0.0003866078914143145
0	5152	-0.0019402153557166457
0	5160	0.0015587451634928584
0	5162	0.00039147117058746517
0	5170	0.001573419664055109
0	5180	0.001976987812668085
0	5222	0.008344481699168682
0	5202	-0.003991962876170874
0	5210	0.0016036563320085406
0	5214	0.0008046023431234062
0	5274	0.012094172649085522
0	5324	0.010070223361253738
0	5306	-0.0036150384694337845
0	5292	-0.002799440175294876
0	5408	0.023078452795743942
0	5464	0.011072153225541115
0	5408	-0.011000524275004864
0	5384	-0.004687866196036339
0	5372	-0.002332482486963272
0	5182	-0.036764707416296005
0	5158	-0.0046314760111272335
0	5140	-0.0034663823898881674
0	5154	0.0026918246876448393
0	5174	0.0038405407685786486
0	5182	0.0015343698905780911
0	5218	0.006897608749568462
0	5210	-0.0015314131742343307
0	5242	0.006120496895164251
0	5270	0.005350114312022924
0	5308	0.007253754418343306
0	5804	0.09459390491247177
0	7030	0.2328643947839737
0	8191	0.2179272174835205
1	6028	-0.39845260977745056
0	2472	-0.6515963077545166
0	3080	0.11327575147151947
0	4778	0.32053259015083313
0	5532	0.14273184537887573
0	5652	0.022668739780783653
0	5676	0.0045211645774543285
0	5682	0.0011270216200500727
0	5672	-0.0018735830672085285
0	5646	-0.004860751796513796
0	5594	-0.009700950235128403
0	5596	0.00037241404061205685
0	5576	-0.003719799919053912
0	5590	0.0026020531076937914
0	5586	-0.0007426064694300294
0	5582	-0.0007416792795993388
0	5606	0.004444307181984186
0	5642	0.006649059243500233
0	5638	-0.0007365894853137434
0	5692	0.009913653135299683
0	5726	0.0062214466743171215
0	5792	0.012036400847136974
0	5812	0.0036339189391583204
0	5810	-0.00036208925303071737
0	5802	-0.0014431315939873457
0	5760	-0.007551014423370361
0	5708	-0.009321502409875393
0	5528	-0.03218980133533478
0	5394	-0.024003010243177414
0	5220	-0.031475551426410675
0	4992	-0.04199616611003876
0	4764	-0.04226500913500786
0	4668	-0.017547281458973885
0	4606	-0.011224022135138512
0	4584	-0.003986855503171682
0	4608	0.004374347161501646
0	4664	0.010271962732076645
0	4702	0.007013658061623573
0	4780	0.014483782462775707
0	4818	0.007095376495271921
0	4904	0.016141140833497047
0	4954	0.009425071068108082
0	5022	0.012870012782514095
0	5060	0.00721729127690196
0	5098	0.007241589482873678
0	5140	0.00802875030785799
0	5136	-0.0007668025209568441
0	5138	0.0003845562459900975
0	5152	0.002700617304071784
0	5174	0.004257130902260542
0	5152	-0.0042714024893939495
0	5152	0.0
0	5164	0.0023483058903366327
0	5164	0.0
0	5182	0.0035524447448551655
0	5226	0.008719317615032196
0	5286	0.011932066641747952
0	5248	-0.00757817504927516
0	5270	0.004395545460283756
0	5388	0.023595595732331276
0	5406	0.0035953023470938206
0	5320	-0.017130335792899132
0	5328	0.0015876585384830832
0	5224	-0.020549839362502098
0	5096	-0.025189576670527458
0	5054	-0.00823766365647316
0	5062	0.0015645168023183942
0	5086	0.004681404680013657
0	5058	-0.005448035895824432
0	5108	0.009711125865578651
0	5154	0.008917493745684624
0	5160	0.0011612753150984645
0	5196	0.006958404090255499
0	5220	0.004633741453289986
0	5308	0.01697290688753128
0	5718	0.07897169888019562
0	6948	0.2360391467809677
0	8191	0.23580074310302734
1	5316	-0.5350662469863892
0	2548	-0.5146288871765137
0	3070	0.09865622967481613
0	4600	0.2930079996585846
0	5498	0.17258279025554657
0	5642	0.027615657076239586
0	5650	0.001529529457911849
0	5682	0.006099924445152283
0	5660	-0.004181582015007734
0	5618	-0.007964149117469788
0	5604	-0.0026485221460461617
0	5630	0.004908346105366945
0	5616	-0.002638936974108219
0	5608	-0.0015059768920764327
0	5592	-0.0030065204482525587
0	5636	0.008254281245172024
0	5640	0.0007484609959647059
0	5664	0.004475580528378487
0	5690	0.00483023002743721
0	5732	0.0077724517323076725
0	5780	0.008847545832395554
0	5852	0.01321270689368248
0	5866	0.002557497937232256
0	5864	-0.0003637796617113054
0	5812	-0.009418072178959846
0	5744	-0.012270307168364525
0	5632	-0.02014642208814621
0	5442	-0.034110698848962784
0	5118	-0.05826395004987717
0	4886	-0.04218258708715439
0	4738	-0.027459613978862762
0	4624	-0.02122720517218113
0	4552	-0.01323610544204712
0	4558	0.00109308201353997
0	4616	0.010569155216217041
0	4676	0.010992500931024551
0	4704	0.0051602753810584545
0	4768	0.011863862164318562
0	4864	0.017896868288517
0	4958	0.017611131072044373
0	4992	0.006396348122507334
0	5052	0.011331159621477127
0	5100	0.009098031558096409
0	5152	0.009888438507914543
0	5182	0.005721405614167452
0	5208	0.004971509799361229
0	5196	-0.002300819382071495
0	5210	0.0026919280644506216
0	5208	-0.0003856834373436868
0	5244	0.006963878404349089
0	5214	-0.005821550264954567
0	5206	-0.001558117801323533
0	5182	-0.004694039933383465
0	5210	0.005500909872353077
0	5244	0.006708407774567604
0	5218	-0.0051491945050656796
0	5238	0.00397472083568573
0	5236	-0.0003985122311860323
0	5254	0.0035915242042392492
0	5300	0.009170044213533401
0	5340	0.007952075451612473
0	5360	0.003960239235311747
0	5332	-0.005517531186342239
0	5460	0.02509443089365959
0	5500	0.0077960556373000145
0	5418	-0.01589065231382847
0	5432	0.0027000964619219303
0	5388	-0.008446486666798592
0	5206	-0.03479968011379242
0	5154	-0.009921139106154442
0	5106	-0.009146573953330517
0	5106	0.0
0	5196	0.017131544649600983
0	5226	0.0057070390321314335
0	5230	0.0007605815771967173
0	5274	0.008363853208720684
0	5308	0.006460275966674089
0	5298	-0.0018987342482432723
0	5548	0.04744192957878113
0	6628	0.20450931787490845
0	8191	0.29340723156929016
1	5652	-0.46790632605552673
0	2230	-0.6289092898368835
0	2996	0.14337141811847687
0	4620	0.3082198202610016
0	5500	0.1676776111125946
0	5630	0.02472626604139805
0	5676	0.00872760359197855
0	5698	0.004162488505244255
0	5688	-0.0018867568578571081
0	5662	-0.004893626552075148
0	5626	-0.006762129720300436
0	5624	-0.00037504921783693135
0	5636	0.002246195450425148
0	5620	-0.002991642104461789
0	5636	0.002989406231790781
0	5666	0.005597536917775869
0	5662	-0.000745253695640713
0	5686	0.0044639259576797485
0	5732	0.00853047240525484
0	5804	0.013304506428539753
0	5874	0.012879563495516777
0	5912	0.006958984304219484
0	5976	0.011669391766190529
0	5966	-0.001815068768337369
0	5934	-0.0057824705727398396
0	5900	-0.0061195469461381435
0	5796	-0.01865236647427082
0	5642	-0.027537865564227104
0	5374	-0.04789620265364647
0	5104	-0.04861682280898094
0	4836	-0.0491676963865757
0	4626	-0.03872014582157135
0	4506	-0.021804703399538994
0	4494	-0.0021607086528092623
0	4476	-0.0032435159664601088
0	4546	0.012691736221313477
0	4604	0.010585358366370201
0	4688	0.015431154519319534
0	4768	0.014787795022130013
0	4826	0.01078227162361145
0	4888	0.011585896834731102
0	4958	0.013141262345016003
0	4994	0.00678664818406105
0	5052	0.0109783336520195
0	5076	0.004559097345918417
0	5104	0.005337874870747328
0	5154	0.009566082619130611
0	5116	-0.007293852511793375
0	5152	0.00693525793030858
0	5164	0.0023203950840979815
0	5166	0.0003883344179484993
0	5178	0.0023407326079905033
0	5180	0.0003919928858522326
0	5196	0.0031523366924375296
0	5202	0.001188134541735053
0	5222	0.0039796773344278336
0	5214	-0.0015990620013326406
0	5228	0.002809251891449094
0	5234	0.001207308261655271
0	5274	0.008056285791099072
0	5278	0.0008047102019190788
0	5276	-0.0004011660348623991
0	5314	0.007589173037558794
0	5388	0.014699844643473625
0	5356	-0.00631928164511919
0	5338	-0.00353412376716733
0	5482	0.028127197176218033
0	5472	-0.0019421749748289585
0	5432	-0.007729468401521444
0	5420	-0.0023089651949703693
0	5300	-0.02300201915204525
0	5164	-0.026000510901212692
0	5156	-0.0015274366596713662
0	5152	-0.0007629317115060985
0	5176	0.004574681632220745
0	5182	0.0011429442092776299
0	5206	0.004569513723254204
0	5222	0.0030453375075012445
0	5232	0.001902056741528213
0	5242	0.0019010924734175205
0	5304	0.011780950240790844
0	5378	0.014048853889107704
0	6024	0.12248767167329788
0	7804	0.3357139229774475
0	7040	-0.14176851511001587
1	3246	-0.6961041688919067
0	2778	-0.08691668510437012
0	4638	0.35072723031044006
0	5524	0.16768869757652283
0	5688	0.030982758849859238
0	5706	0.0033917040564119816
0	5718	0.0022550737485289574
0	5686	-0.005996926221996546
0	5652	-0.006356962025165558
0	5676	0.004479896742850542
0	5646	-0.00558874337002635
0	5608	-0.007065560668706894
0	5646	0.007060047704726458
0	5646	0.0
0	5644	-0.0003706907154992223
0	5662	0.0033316060435026884
0	5694	0.005909656174480915
0	5714	0.0036815237253904343
0	5764	0.009172404184937477
0	5840	0.013890073634684086
0	5904	0.011649779044091702
0	5952	0.008699224330484867
0	5982	0.005412622354924679
0	5930	-0.009339192882180214
0	5936	0.0010731148067861795
0	5858	-0.013893011957406998
0	5648	-0.03728163614869118
0	5384	-0.04679357632994652
0	5102	-0.050173766911029816
0	4782	-0.05786199867725372
0	4582	-0.036662716418504715
0	4476	-0.019273895770311356
0	4418	-0.010438663884997368
0	4490	0.01297546736896038
0	4530	0.007253647781908512
0	4578	0.008765735663473606
0	4660	0.015078334137797356
0	4748	0.016287248581647873
0	4816	0.012658855877816677
0	4878	0.011602086015045643
0	4930	0.009779460728168488
0	4984	0.010201383382081985
0	5030	0.008724348619580269
0	5058	0.0053312345407903194
0	5070	0.0022933734580874443
0	5132	0.011892582289874554
0	5152	0.003849361790344119
0	5170	0.003476514248177409
0	5162	-0.0015505477786064148
0	5170	0.0015566019574180245
0	5166	-0.0007816978031769395
0	5202	0.007069265469908714
0	5158	-0.008682839572429657
0	5160	0.00039682540227659047
0	5220	0.011965697631239891
0	5214	-0.0012022923910990357
0	5210	-0.0008049909374676645
0	5242	0.006458905525505543
0	5246	0.0008081352571025491
0	5262	0.0032294089905917645
0	5294	0.006438027136027813
0	5304	0.00200232258066535
0	5290	-0.0027878452092409134
0	5314	0.00475165992975235
0	5348	0.006695109885185957
0	5416	0.013318708166480064
0	5332	-0.016362998634576797
0	5432	0.0193951316177845
0	5552	0.023171689361333847
0	5452	-0.019218696281313896
0	5444	-0.0015318627702072263
0	5360	-0.016031961888074875
0	5194	-0.03160660341382027
0	5172	-0.004184471908956766
0	5152	-0.0038013176526874304
0	5182	0.005699015688151121
0	5182	0.0
0	5172	-0.0018987101502716541
0	5210	0.007215007673949003
0	5250	0.007592438254505396
0	5278	0.005312017630785704
0	5308	0.005687419790774584
0	5786	0.09055888652801514
0	7240	0.27437758445739746
0	8191	0.17714114487171173
1	5410	-0.508629560470581
0	2062	-0.6115999817848206
0	3188	0.20971336960792542
0	5080	0.3569295108318329
0	5672	0.11179865896701813
0	5718	0.008664695546030998
0	5766	0.009017415344715118
0	5714	-0.009740686044096947
0	5706	-0.001494609983637929
0	5702	-0.0007454851875081658
0	5674	-0.005206945352256298
0	5658	-0.002970646368339658
0	5638	-0.0037058312445878983
0	5626	-0.0022206732537597418
0	5632	0.00110982998739928
0	5634	0.0003695332270581275
0	5658	0.00442921556532383
0	5694	0.006631666328758001
0	5740	0.008447859436273575
0	5790	0.009150637313723564
0	5830	0.007292128633707762
0	5858	0.005084468517452478
0	5902	0.007957319729030132
0	5916	0.0025207814760506153
0	5874	-0.00753043545410037
0	5848	-0.004644377622753382
0	5718	-0.0231433417648077
0	5586	-0.023442355915904045
0	5312	-0.04871832951903343
0	5026	-0.05143977329134941
0	4758	-0.049134645611047745
0	4592	-0.03055589646100998
0	4492	-0.01812579296529293
0	4450	-0.007553322706371546
0	4488	0.0068598659709095955
0	4552	0.011636363342404366
0	4632	0.014648973941802979
0	4714	0.015119852498173714
0	4750	0.006679035257548094
0	4844	0.017543423920869827
0	4932	0.016511764377355576
0	4970	0.007163323927670717
0	5018	0.009087696671485901
0	5034	0.0030411311890929937
0	5082	0.009157741442322731
0	5104	0.0042120311409235
0	5142	0.0073000178672373295
0	5166	0.00462582241743803
0	5152	-0.0027075812686234713
0	5176	0.0046592289581894875
0	5156	-0.003898179391399026
0	5174	0.003523792140185833
0	5140	-0.0066858939826488495
0	5182	0.00830050464719534
0	5194	0.0023830959107726812
0	5226	0.006383657921105623
0	5202	-0.004807627759873867
0	5182	-0.004020208027213812
0	5222	0.008062240667641163
0	5220	-0.00040335592348128557
0	5246	0.005236797034740448
0	5326	0.01606060191988945
0	5398	0.014383889734745026
0	5366	-0.006354501936584711
0	5360	-0.0011842884123325348
0	5476	0.0227656327188015
0	5472	-0.000780305068474263
0	5432	-0.007760660722851753
0	5412	-0.0038623956497758627
0	5336	-0.014614822342991829
0	5182	-0.029521143063902855
0	5116	-0.012631740421056747
0	5128	0.0022945429664105177
0	5158	0.005732337944209576
0	5182	0.00458225142210722
0	5208	0.004960948601365089
0	5206	-0.00038135916111059487
0	5236	0.005718061700463295
0	5282	0.008763796649873257
0	5282	0.0
0	5498	0.04109015688300133
0	6586	0.20652475953102112
0	8191	0.3019641637802124
1	6772	-0.26195794343948364
0	2360	-0.8065961003303528
0	2724	0.06771547347307205
0	3630	0.1712007373571396
0	5096	0.27979058027267456
0	5578	0.09204152971506119
0	5666	0.016766268759965897
0	5664	-0.00037997530307620764
0	5660	-0.000757944246288389
0	5634	-0.004916265606880188
0	5566	-0.012838829308748245
0	5564	-0.0003771378833334893
0	5562	-0.00037665493437089026
0	5586	0.004517420195043087
0	5590	0.0007523652166128159
0	5570	-0.0037581033539026976
0	5574	0.0007508776034228504
0	5574	0.0
0	5612	0.0071053272113204
0	5662	0.009320301935076714
0	5708	0.008546320721507072
0	5752	0.008146991953253746
0	5772	0.0036901957355439663
0	5822	0.009193598292768002
0	5790	-0.005861771758645773
0	5714	-0.013874773867428303
0	5676	-0.006919196806848049
0	5556	-0.021797968074679375
0	5366	-0.0345013365149498
0	5118	-0.045368343591690063
0	4876	-0.04511614888906479
0	4714	-0.03056180849671364
0	4598	-0.0215645432472229
0	4534	-0.011761102825403214
0	4538	0.0007310208748094738
0	4532	-0.001100271358154714
0	4606	0.013657336123287678
0	4652	0.008545421063899994
0	4734	0.015329204499721527
0	4804	0.013161853887140751
0	4890	0.016254834830760956
0	4968	0.014805815182626247
0	4994	0.0049539534375071526
0	5070	0.014533216133713722
0	5092	0.00422086613252759
0	5112	0.00384941091760993
0	5164	0.010037964209914207
0	5152	-0.0023225806653499603
0	5132	-0.003881535492837429
0	5140	0.0015574503922834992
0	5160	0.0039068604819476604
0	5152	-0.0015683404635637999
0	5152	0.0
0	5134	-0.003557124873623252
0	5154	0.003970354329794645
0	5170	0.003189707873389125
0	5212	0.008403361774981022
0	5266	0.010837860405445099
0	5248	-0.003619642462581396
0	5334	0.01730753853917122
0	5406	0.014469065703451633
0	5332	-0.014818374998867512
0	5328	-0.0007977026398293674
0	5296	-0.006350802257657051
0	5134	-0.031989678740501404
0	5098	-0.007081038784235716
0	5070	-0.005487111862748861
0	5126	0.010941061191260815
0	5110	-0.0031163974199444056
0	5154	0.008549222722649574
0	5182	0.005428109783679247
0	5206	0.004643902648240328
0	5228	0.004250386264175177
0	5252	0.0046298084780573845
0	5454	0.03892200067639351
0	6258	0.15455792844295502
0	7834	0.30075570940971375
0	7430	-0.07580970227718353
1	4090	-0.6179386973381042
0	2816	-0.23722921311855316
0	3468	0.12318466603755951
0	5132	0.3177715241909027
0	5622	0.09358646720647812
0	5704	0.015614684671163559
0	5728	0.00455367611721158
0	5690	-0.0071839080192148685
0	5696	0.0011305965017527342
0	5650	-0.008641635067760944
0	5632	-0.0033733975142240524
0	5642	0.001869624829851091
0	5612	-0.005598129238933325
0	5618	0.0011181930312886834
0	5644	0.004836909007281065
0	5616	-0.005198792088776827
0	5648	0.005929732695221901
0	5686	0.007019272539764643
0	5692	0.001104308059439063
0	5774	0.01503483671694994
0	5822	0.00876616220921278
0	5858	0.006546247750520706
0	5886	0.0050698923878371716
0	5878	-0.001442411681637168
0	5790	-0.01580270566046238
0	5740	-0.008948706090450287
0	5558	-0.032478734850883484
0	5338	-0.039235737174749374
0	5152	-0.03335445374250412
0	4974	-0.03243991732597351
0	4772	-0.03737141937017441
0	4672	-0.01842321828007698
0	4600	-0.013115232810378075
0	4580	-0.0036182506009936333
0	4642	0.011254038661718369
0	4674	0.005843183491379023
0	4756	0.01506762020289898
0	4806	0.009242599830031395
0	4878	0.01338223647326231
0	4966	0.01643938012421131
0	5002	0.006753967609256506
0	5078	0.014314773492515087
0	5110	0.006048691924661398
0	5166	0.010618798434734344
0	5182	0.0030426348093897104
0	5216	0.006484589539468288
0	5240	0.004589027259498835
0	5266	0.004984407685697079
0	5246	-0.003844478167593479
0	5278	0.006168793886899948
0	5260	-0.0034810411743819714
0	5262	0.0003881887241732329
0	5266	0.0007793827098794281
0	5270	0.0007825338398106396
0	5286	0.0031425950583070517
0	5302	0.0031529993284493685
0	5280	-0.004347883630543947
0	5262	-0.0035638860426843166
0	5294	0.006338976789265871
0	5344	0.00989537313580513
0	5424	0.015794044360518456
0	5372	-0.010222269222140312
0	5412	0.007827380672097206
0	5522	0.02141188643872738
0	5504	-0.0034824779722839594
0	5422	-0.015776917338371277
0	5448	0.004978553857654333
0	5284	-0.03126509115099907
0	5194	-0.017105713486671448
0	5178	-0.0030349399894475937
0	5174	-0.0007577192736789584
0	5190	0.00302758882753551
0	5210	0.0037818143609911203
0	5222	0.0022676594089716673
0	5242	0.0037780997809022665
0	5272	0.0056650093756616116
0	5300	0.005285479128360748
0	5490	0.03585221245884895
0	6236	0.1405690610408783
0	8094	0.3479400873184204
1	7182	-0.1678362786769867
0	2400	-0.8697814345359802
0	2888	0.09032799303531647
0	4530	0.30845722556114197
0	5540	0.19061638414859772
0	5670	0.024495640769600868
0	5692	0.004135856404900551
0	5690	-0.00037501874612644315
0	5660	-0.005610272753983736
0	5668	0.001492667361162603
0	5656	-0.0022344980388879776
0	5640	-0.0029750466346740723
0	5652	0.002227584831416607
0	5650	-0.00037071362021379173
0	5616	-0.006297151558101177
0	5672	0.010364612564444542
0	5674	0.0003695946652442217
0	5722	0.008857940323650837
0	5768	0.008466050028800964
0	5796	0.005135164596140385
0	5878	0.014982094056904316
0	5922	0.008004851639270782
0	5930	0.0014489953173324466
0	5954	0.004328171256929636
0	5926	-0.005027411039918661
0	5858	-0.012159649282693863
0	5722	-0.024234648793935776
0	5464	-0.045859601348638535
0	5182	-0.05013333261013031
0	4906	-0.04937506094574928
0	4700	-0.03756656125187874
0	4540	-0.029624875634908676
0	4476	-0.011695478111505508
0	4518	0.007601626683026552
0	4556	0.006878159940242767
0	4614	0.010560944676399231
0	4688	0.013561227358877659
0	4754	0.012169786728918552
0	4852	0.018174849450588226
0	4926	0.013792760670185089
0	4970	0.008239082992076874
0	5032	0.011659542098641396
0	5032	0.0
0	5090	0.010991926304996014
0	5152	0.011791706085205078
0	5130	-0.0041964976117014885
0	5182	0.009953295812010765
0	5210	0.005376344081014395
0	5228	0.003467584727331996
0	5200	-0.00541278999298811
0	5210	0.0019405919592827559
0	5180	-0.005847041495144367
0	5214	0.006658745463937521
0	5224	0.0019676517695188522
0	5220	-0.0007908472325652838
0	5228	0.0015890882350504398
0	5228	0.0
0	5274	0.009205768816173077
0	5270	-0.000801517569925636
0	5248	-0.004405756946653128
0	5282	0.006793387699872255
0	5308	0.00517488457262516
0	5344	0.007128900848329067
0	5384	0.007875876501202583
0	5376	-0.0015662729274481535
0	5480	0.020253164693713188
0	5548	0.013168426230549812
0	5446	-0.019643591716885567
0	5458	0.002300789812579751
0	5346	-0.021391192451119423
0	5182	-0.031239286065101624
0	5152	-0.005706821568310261
0	5140	-0.0022809929214417934
0	5162	0.004178960807621479
0	5180	0.0034175917971879244
0	5182	0.0003796651435550302
0	5182	0.0
0	5222	0.007590805180370808
0	5248	0.004933648742735386
0	5290	0.00796873215585947
0	5486	0.03716626018285751
0	6424	0.17755736410617828
0	8191	0.3318766951560974
1	6848	-0.24762606620788574
0	2490	-0.795599102973938
0	2348	-0.026361549273133278
0	3834	0.28087374567985535
0	5244	0.26887017488479614
0	5630	0.07361963391304016
0	5706	0.014461958780884743
0	5718	0.0022768527269363403
0	5688	-0.005676478613168001
0	5668	-0.0037752706557512283
0	5656	-0.002260554116219282
0	5644	-0.0022566996049135923
0	5652	0.0015019432175904512
0	5644	-0.0015003281878307462
0	5622	-0.004123427905142307
0	5640	0.003370008198544383
0	5638	-0.0003740205429494381
0	5662	0.004480091854929924
0	5684	0.004094521515071392
0	5740	0.010388133116066456
0	5796	0.01034973468631506
0	5836	0.007363906130194664
0	5904	0.012468446977436543
0	5954	0.009127696044743061
0	5970	0.002907205605879426
0	5920	-0.009044044651091099
0	5798	-0.02197841741144657
0	5648	-0.02694046124815941
0	5376	-0.04880470409989357
0	5062	-0.056696098297834396
0	4802	-0.04784689098596573
0	4618	-0.03429125249385834
0	4484	-0.024647153913974762
0	4426	-0.010530265979468822
0	4444	0.00325634703040123
0	4516	0.013088528998196125
0	4558	0.007686864119023085
0	4630	0.013270421884953976
0	4714	0.01558634266257286
0	4772	0.01082722470164299
0	4838	0.01238971296697855
0	4902	0.012076078914105892
0	4960	0.010995260439813137
0	4986	0.004950558301061392
0	5032	0.008795411325991154
0	5040	0.0015354104107245803
0	5088	0.009247960522770882
0	5110	0.004253673832863569
0	5134	0.004656938835978508
0	5158	0.004673564340919256
0	5182	0.004691287409514189
0	5182	0.0
0	5166	-0.0031535793095827103
0	5206	0.007922360673546791
0	5208	0.0003980838810093701
0	5198	-0.0020005335099995136
0	5200	0.0004020423803012818
0	5206	0.0012109795352444053
0	5222	0.0032389103434979916
0	5250	0.005673989187926054
0	5246	-0.0008095417870208621
0	5266	0.004035620950162411
0	5252	-0.002812675666064024
0	5270	0.0035977931693196297
0	5330	0.011925583705306053
0	5374	0.008694391697645187
0	5306	-0.013361277990043163
0	5402	0.01877102069556713
0	5488	0.016731517389416695
0	5456	-0.006194587796926498
0	5418	-0.007323747966438532
0	5320	-0.018817445263266563
0	5222	-0.018767235800623894
0	5136	-0.01644170843064785
0	5114	-0.004202001728117466
0	5178	0.012217625975608826
0	5160	-0.0034331928472965956
0	5204	0.008388408459722996
0	5176	-0.005334891378879547
0	5218	0.008000203408300877
0	5252	0.006473888643085957
0	5276	0.004567774012684822
0	5402	0.02396652288734913
0	6066	0.12611106038093567
0	8014	0.3679729998111725
0	7350	-0.1232505515217781
1	3694	-0.6697033643722534
0	2426	-0.23442700505256653
0	4164	0.32692116498947144
0	5488	0.2507100999355316
0	5692	0.038571104407310486
0	5694	0.00037708814488723874
0	5722	0.005265071056783199
0	5698	-0.004499662667512894
0	5718	0.003739715786650777
0	5696	-0.0041037630289793015
0	5650	-0.008563450537621975
0	5650	0.0
0	5594	-0.01038691308349371
0	5636	0.007785082794725895
0	5630	-0.0011109191691502929
0	5632	0.000369822490029037
0	5644	0.0022146760020405054
0	5696	0.009572078473865986
0	5746	0.009172404184937477
0	5768	0.00402032071724534
0	5862	0.01711622066795826
0	5932	0.012692042626440525
0	5926	-0.001083123730495572
0	5932	0.0010782575700432062
0	5922	-0.0017894422635436058
0	5824	-0.017466731369495392
0	5700	-0.02202904224395752
0	5418	-0.05001004785299301
0	5152	-0.047353994101285934
0	4828	-0.05867581069469452
0	4604	-0.04119313135743141
0	4492	-0.02048230916261673
0	4470	-0.003973270766437054
0	4424	-0.00829247198998928
0	4500	0.013788765296339989
0	4606	0.01937134563922882
0	4644	0.006990776862949133
0	4736	0.01703766919672489
0	4822	0.01602165959775448
0	4876	0.010116401128470898
0	4934	0.010921690613031387
0	4996	0.011727617122232914
0	5046	0.009496917016804218
0	5058	0.0022871955297887325
0	5104	0.008799897506833076
0	5140	0.006910054478794336
0	5130	-0.0019255208317190409
0	5182	0.010045850649476051
0	5182	0.0
0	5182	0.0
0	5174	-0.0015622559003531933
0	5174	0.0
0	5214	0.007885502651333809
0	5170	-0.0087148267775774
0	5206	0.007166365627199411
0	5202	-0.0008000640082173049
0	5206	0.00080339569831267
0	5238	0.006448492873460054
0	5230	-0.0016140748048201203
0	5222	-0.0016132284654304385
0	5256	0.0068381112068891525
0	5282	0.005206386558711529
0	5292	0.0019919525366276503
0	5328	0.007132102269679308
0	5382	0.010634666308760643
0	5342	-0.007832182571291924
0	5476	0.026112375780940056
0	5514	0.007365197874605656
0	5422	-0.017742348834872246
0	5408	-0.0026895490009337664
0	5364	-0.008424169383943081
0	5196	-0.03207698464393616
0	5152	-0.008390434086322784
0	5152	0.0
0	5152	0.0
0	5178	0.004950180649757385
0	5154	-0.004568296018987894
0	5208	0.010277100838720798
0	5216	0.0015222823712974787
0	5230	0.0026634198147803545
0	5234	0.0007607455481775105
0	5364	0.02471482940018177
0	6208	0.1602632999420166
0	8191	0.3741886019706726
1	6490	-0.3149902820587158
0	1956	-0.8330016136169434
0	3030	0.20132090151309967
0	4896	0.35460227727890015
0	5598	0.13369305431842804
0	5708	0.02090022899210453
0	5718	0.001894190558232367
0	5718	0.0
0	5678	-0.007534044329077005
0	5686	0.0015031660441309214
0	5628	-0.010873572900891304
0	5612	-0.002995002083480358
0	5610	-0.00037374559906311333
0	5610	0.0
0	5600	-0.0018660546047613025
0	5608	0.0014911926118656993
0	5626	0.0033510192297399044
0	5648	0.004089042078703642
0	5694	0.008525939658284187
0	5720	0.004802925977855921
0	5770	0.009204205125570297
0	5828	0.010636541992425919
0	5842	0.002557280007749796
0	5882	0.007276034448295832
0	5882	0.0
0	5800	-0.014795658178627491
0	5714	-0.01546438131481409
0	5490	-0.040163762867450714
0	5246	-0.04371689260005951
0	4956	-0.052258845418691635
0	4710	-0.0452083982527256
0	4552	-0.02935638837516308
0	4462	-0.016457393765449524
0	4420	-0.007613661233335733
0	4452	0.005817617755383253
0	4466	0.002563007175922394
0	4580	0.02102958969771862
0	4646	0.012260820716619492
0	4764	0.022067349404096603
0	4818	0.010156485252082348
0	4868	0.009455609135329723
0	4946	0.014821759425103664
0	4980	0.0064881364814937115
0	5000	0.0038319069426506758
0	5056	0.010771302506327629
0	5058	0.0003860357974190265
0	5066	0.001549626816995442
0	5090	0.004665750544518232
0	5096	0.001170670846477151
0	5098	0.00039174719131551683
0	5152	0.010620304383337498
0	5136	-0.0031595577020198107
0	5152	0.0031740155536681414
0	5176	0.0047828457318246365
0	5176	0.0
0	5182	0.0012070329394191504
0	5168	-0.0028281304985284805
0	5222	0.010948756709694862
0	5204	-0.003656208049505949
0	5190	-0.0028445261996239424
0	5248	0.011765819974243641
0	5298	0.010106181725859642
0	5334	0.0072400616481900215
0	5330	-0.000799776054918766
0	5362	0.006359637249261141
0	5484	0.024100827053189278
0	5446	-0.007456828840076923
0	5386	-0.01170762162655592
0	5392	0.0011651541572064161
0	5234	-0.03055816888809204
0	5152	-0.015816884115338326
0	5102	-0.009626863524317741
0	5130	0.0053856512531638145
0	5182	0.00999231357127428
0	5168	-0.0026871056761592627
0	5182	0.0026851817965507507
0	5242	0.011498806066811085
0	5276	0.006508672144263983
0	5256	-0.00382409174926579
0	5388	0.025213293731212616
0	6300	0.17387989163398743
0	8191	0.3579224944114685
1	7354	-0.15542887151241302
0	2188	-0.9464138746261597
0	2796	0.1134561225771904
0	4024	0.232594832777977
0	5312	0.24575617909431458
0	5676	0.06938928365707397
0	5722	0.008743750862777233
0	5730	0.0015156777808442712
0	5712	-0.003398684784770012
0	5694	-0.0033887880854308605
0	5656	-0.0071363733150064945
0	5628	-0.005247802473604679
0	5652	0.004489757586270571
0	5614	-0.007095951121300459
0	5634	0.0037316912785172462
0	5642	0.0014909332385286689
0	5648	0.0011164244497194886
0	5652	0.0007431030389852822
0	5714	0.011488360352814198
0	5716	0.0003693103208206594
0	5796	0.014716793783009052
0	5834	0.006962044630199671
0	5848	0.0025547912809997797
0	5856	0.0014538669493049383
0	5826	-0.005429831799119711
0	5766	-0.010821535252034664
0	5642	-0.022298814728856087
0	5436	-0.036959290504455566
0	5176	-0.046634264290332794
0	4944	-0.04189363867044449
0	4760	-0.0338883139193058
0	4640	-0.02245873212814331
0	4578	-0.011428852565586567
0	4588	0.0018233978189527988
0	4590	0.0003634337044786662
0	4602	0.0021901805885136127
0	4712	0.020208699628710747
0	4744	0.0059154825285077095
0	4846	0.01897086203098297
0	4916	0.013089494779706001
0	5006	0.016911359503865242
0	5064	0.010942982509732246
0	5086	0.0041655623354017735
0	5108	0.004180496092885733
0	5164	0.010675478726625443
0	5174	0.001912045874632895
0	5194	0.00383553234860301
0	5218	0.0046160356141626835
0	5222	0.0007714859093539417
0	5210	-0.002321801846846938
0	5216	0.0011647017672657967
0	5176	-0.0077939280308783054
0	5222	0.00900148693472147
0	5266	0.008645419962704182
0	5294	0.005522972904145718
0	5292	-0.00039588281651958823
0	5304	0.0023827487602829933
0	5414	0.02189083956182003
0	5420	0.0011942199198529124
0	5376	-0.008743458427488804
0	5358	-0.0035666634794324636
0	5260	-0.019342105835676193
0	5132	-0.0251605287194252
0	5118	-0.0027419799007475376
0	5152	0.006636131554841995
0	5156	0.0007778771687299013
0	5176	0.0038754683919250965
0	5208	0.006182221230119467
0	5248	0.007704753894358873
0	5228	-0.003842459060251713
0	5276	0.009203513152897358
0	5292	0.003062552772462368
0	5550	0.04931192845106125
0	6284	0.13987702131271362
0	7878	0.3015132546424866
0	7670	-0.038682322949171066
1	4470	-0.5860447883605957
0	2646	-0.33552849292755127
0	3238	0.11064454913139343
0	4758	0.2876427173614502
0	5590	0.1578967422246933
0	5694	0.019690506160259247
0	5696	0.00037742970744147897
0	5692	-0.0007526153931394219
0	5686	-0.001125914859585464
0	5670	-0.0029950954485684633
0	5684	0.0026145419105887413
0	5684	0.0
0	5650	-0.0063240122981369495
0	5620	-0.005572065245360136
0	5642	0.004080018028616905
0	5668	0.004813388455659151
0	5680	0.00221598451025784
0	5704	0.004417069256305695
0	5772	0.012470199726521969
0	5806	0.006211558356881142
0	5842	0.006551012862473726
0	5866	0.004349770024418831
0	5882	0.0028883647173643112
0	5840	-0.007553141564130783
0	5786	-0.009675685316324234
0	5682	-0.01857806369662285
0	5482	-0.03564427047967911
0	5276	-0.03672843426465988
0	5048	-0.04089588299393654
0	4836	-0.038680486381053925
0	4684	-0.028219567611813545
0	4618	-0.012237027287483215
0	4612	-0.0010990621522068977
0	4608	-0.0007266121683642268
0	4636	0.005090909078717232
0	4696	0.010972531512379646
