0	5618	-0.001459356863051653
0	5562	-0.01019145455211401
0	5508	-0.009807363152503967
0	5468	-0.007253735791891813
0	5362	-0.019201043993234634
0	5272	-0.01630631648004055
0	5090	-0.03315359726548195
0	4964	-0.0230151005089283
0	4848	-0.02107277326285839
0	4794	-0.009676494635641575
0	4762	-0.005705116782337427
0	4794	0.005724371410906315
0	4818	0.004321832209825516
0	4840	0.003991774283349514
0	4892	0.0095061669126153
0	4928	0.00662893895059824
0	4982	0.01001161802560091
0	5014	0.005969332531094551
0	5078	0.012004801072180271
0	5100	0.0041472394950687885
0	5134	0.006438418757170439
0	5172	0.007224700879305601
0	5202	0.0057243169285357
0	5230	0.0053591253235936165
0	5248	0.0034547175746411085
0	5250	0.0003848571504931897
0	5262	0.0023149934131652117
0	5254	-0.0015472490340471268
0	5252	-0.00038781235343776643
0	5234	-0.0034991316497325897
0	5232	-0.0003897824790328741
0	5258	0.00507991062477231
0	5236	-0.004306912887841463
0	5250	0.0027456365060061216
0	5232	-0.003535141935572028
0	5266	0.006683178246021271
0	5270	0.0007862871279940009
0	5256	-0.002748762955889106
0	5268	0.0023515888024121523
0	5284	0.0031268729362636805
0	5280	-0.0007792309042997658
0	5260	-0.0038830931298434734
0	5294	0.006581409368664026
0	5286	-0.0015438253758475184
0	5314	0.005387931130826473
0	5410	0.018423039466142654
0	5474	0.012244273908436298
0	5398	-0.014494596049189568
0	5376	-0.0041855862364172935
0	5314	-0.011773492209613323
0	5240	-0.014033224433660507
0	5208	-0.006064357701689005
0	5202	-0.001136808656156063
0	5196	-0.001136808656156063
0	5200	0.0007580352248623967
0	5208	0.001516530173830688
0	5208	0.0
0	5242	0.006449165288358927
0	5254	0.0022763486485928297
0	5334	0.015175466425716877
0	6024	0.13080568611621857
0	5712	-0.05885237827897072
1	4844	-0.16326428949832916
0	2352	-0.4698813259601593
0	3214	0.1655506193637848
0	4672	0.28367966413497925
0	5614	0.18399156630039215
0	5962	0.0678195133805275
0	6078	0.02250329963862896
0	6048	-0.005789494141936302
0	6016	-0.00614525843411684
0	5960	-0.010703773237764835
0	5906	-0.01027566660195589
0	5852	-0.010235931724309921
0	5790	-0.011710486374795437
0	5784	-0.0011298867175355554
0	5710	-0.013902631588280201
0	5676	-0.006378268823027611
0	5660	-0.002996329450979829
0	5618	-0.007851445116102695
0	5612	-0.0011195143451914191
0	5618	0.0011169301578775048
0	5608	-0.0018568263622000813
0	5586	-0.0040747784078121185
0	5596	0.0018477229168638587
0	5560	-0.006635618396103382
0	5538	-0.004046349320560694
0	5498	-0.007342143915593624
0	5432	-0.012095591984689236
0	5366	-0.01208245288580656
0	5268	-0.017937110736966133
0	5152	-0.02133006416261196
0	5018	-0.024724768474698067
0	4904	-0.021012017503380775
0	4848	-0.010162356309592724
0	4760	-0.01581311784684658
0	4762	0.000359199708327651
0	4804	0.007581866346299648
0	4822	0.003272172063589096
0	4858	0.006594533566385508
0	4900	0.007749935612082481
0	4948	0.008918286301195621
0	4994	0.008600595407187939
0	5028	0.006393300369381905
0	5078	0.00945072341710329
0	5090	0.0022783945314586163
0	5172	0.0156377125531435
0	5182	0.0019135826732963324
0	5188	0.0011517788516357541
0	5244	0.01078250166028738
0	5254	0.0019300796557217836
0	5264	0.001934535219334066
0	5274	0.0019389615627005696
0	5250	-0.004663574974983931
0	5254	0.0007789577357470989
0	5258	0.0007806909270584583
0	5242	-0.0031289111357182264
0	5260	0.003526829881593585
0	5240	-0.003924801014363766
0	5276	0.0070735253393650055
0	5260	-0.003145643277093768
0	5278	0.00353903416544199
0	5260	-0.003536114003509283
0	5248	-0.002353679621592164
0	5274	0.005088195204734802
0	5268	-0.0011709448881447315
0	5264	-0.0007780587184242904
0	5254	-0.001938836183398962
0	5284	0.0057996418327093124
0	5274	-0.001927475561387837
0	5264	-0.0019223375711590052
0	5270	0.0011507185408845544
0	5282	0.0022967092227190733
0	5280	-0.000382082856958732
0	5312	0.006103530991822481
0	5302	-0.001904520089738071
0	5298	-0.0007607840816490352
0	5318	0.003800884587690234
0	5362	0.008354747667908669
0	5474	0.02124323509633541
0	5426	-0.009091024287045002
0	5382	-0.008324399590492249
0	5360	-0.00415910454466939
0	5304	-0.010581077076494694
0	5196	-0.02039942517876625
0	5182	-0.0026453358586877584
0	5206	0.004537033848464489
0	5218	0.0022690314799547195
0	5230	0.0022696321830153465
0	5222	-0.001513183582574129
0	5238	0.003027397906407714
0	5260	0.004163249861449003
0	5272	0.0022711213678121567
0	5634	0.06850697845220566
0	6136	0.09477062523365021
1	5130	-0.18889416754245758
0	2514	-0.4916245937347412
0	2734	0.04206929728388786
0	4058	0.25731387734413147
0	5486	0.2797476649284363
0	5948	0.09038148075342178
0	6066	0.02298193797469139
0	6060	-0.0011625654296949506
0	6032	-0.005398180335760117
0	5992	-0.007674597203731537
0	5924	-0.012990321032702923
0	5892	-0.006088975351303816
0	5822	-0.013269638642668724
0	5794	-0.005291005130857229
0	5776	-0.003392130369320512
0	5732	-0.008276172913610935
0	5698	-0.0063829789869487286
0	5652	-0.008618751540780067
0	5624	-0.005236646626144648
0	5612	-0.0022398089058697224
0	5622	0.0018616889137774706
0	5632	0.0018566194921731949
0	5612	-0.003703474998474121
0	5596	-0.0029555922374129295
0	5582	-0.002580328145995736
0	5528	-0.009930730797350407
0	5480	-0.008811650797724724
0	5390	-0.016499632969498634
0	5278	-0.02051808126270771
0	5196	-0.015054895542562008
0	5062	-0.024744248017668724
0	4934	-0.023646194487810135
0	4846	-0.016018057242035866
0	4804	-0.007548254448920488
0	4782	-0.003936256282031536
0	4802	0.00359350279904902
0	4810	0.0014473351184278727
0	4890	0.014583814889192581
0	4904	0.0025704423896968365
0	4938	0.006285897456109524
0	4986	0.00893222726881504
0	5056	0.013102398253977299
0	5076	0.0037631711456924677
0	5092	0.0030246891546994448
0	5152	0.011392981745302677
0	5158	0.0011438156943768263
0	5210	0.00994936004281044
0	5218	0.001535449642688036
0	5238	0.003849312197417021
0	5240	0.00038588684401474893
0	5232	-0.0015472490340471268
0	5244	0.0023267236538231373
0	5248	0.0007775243720971048
0	5246	-0.0003896812559105456
0	5250	0.0007811381365172565
0	5254	0.0007828299421817064
0	5246	-0.001568463514558971
0	5248	0.000392716407077387
0	5246	-0.00039308174746111035
0	5242	-0.0007863283972255886
0	5216	-0.005109594203531742
0	5224	0.0015705983387306333
0	5256	0.006270493380725384
0	5240	-0.0031268729362636805
0	5254	0.0027282647788524628
0	5264	0.0019428037339821458
0	5250	-0.002711811801418662
0	5260	0.0019315211102366447
0	5258	-0.0003853861417155713
0	5264	0.0011535355588421226
0	5302	0.007290494162589312
0	5270	-0.006126981694251299
0	5278	0.0015296562341973186
0	5292	0.002673456445336342
0	5290	-0.00038143672281876206
0	5318	0.005335433874279261
0	5312	-0.0011421465314924717
0	5306	-0.001141407759860158
0	5302	-0.0007605141145177186
0	5294	-0.001520411460660398
0	5294	0.0
0	5288	-0.0011394713073968887
0	5308	0.003797179786488414
0	5292	-0.0030365907587110996
0	5328	0.006830341648310423
0	5342	0.0026549343019723892
0	5388	0.008718506433069706
0	5456	0.01287667453289032
0	5390	-0.012481561861932278
0	5372	-0.0034009749069809914
0	5320	-0.009817001409828663
0	5234	-0.016225190833210945
0	5182	-0.009809963405132294
0	5176	-0.0011324458755552769
0	5212	0.006797411944717169
0	5214	0.00037773384246975183
0	5206	-0.0015114110428839922
0	5224	0.003401617519557476
0	5226	0.00037804324529133737
0	5236	0.0018905973993241787
0	5262	0.004916421137750149
0	5762	0.09457039088010788
0	6016	0.04789320006966591
1	5170	-0.15878179669380188
1	2700	-0.4639368951320648
0	2992	0.05575001612305641
0	4906	0.37092065811157227
0	5762	0.16632339358329773
0	6014	0.04882018268108368
0	6070	0.010799274779856205
0	6072	0.00038377405144274235
0	6044	-0.00534623209387064
0	5982	-0.011781398206949234
0	5930	-0.009839167818427086
0	5876	-0.010176646523177624
0	5822	-0.010141734033823013
0	5780	-0.007864383049309254
0	5750	-0.005603705998510122
0	5694	-0.010441138409078121
0	5648	-0.008560475893318653
0	5624	-0.004458701238036156
0	5630	0.0011125807650387287
0	5610	-0.003699547378346324
0	5604	-0.001106943003833294
0	5588	-0.0029440987855196
0	5576	-0.0022029937244951725
0	5542	-0.006228018552064896
0	5518	-0.00438724784180522
0	5502	-0.0029196012765169144
0	5430	-0.013116187416017056
0	5384	-0.008369926363229752
0	5258	-0.022909369319677353
0	5178	-0.014590198174118996
0	5022	-0.02859656699001789
0	4926	-0.017613817006349564
0	4846	-0.014481035992503166
0	4826	-0.003580208634957671
0	4828	0.00035819184267893434
0	4838	0.001801001257263124
0	4836	-0.0003627613477874547
0	4856	0.003654881613329053
0	4888	0.005891449749469757
0	4944	0.010383701883256435
0	4978	0.006345098372548819
0	5028	0.009386615827679634
0	5078	0.009436692111194134
0	5106	0.005309399217367172
0	5152	0.008759901858866215
0	5158	0.0011469497112557292
0	5212	0.010357923805713654
0	5232	0.0038469922728836536
0	5234	0.00038566856528632343
0	5246	0.002319916384294629
0	5240	-0.001162685570307076
0	5272	0.006215603556483984
0	5234	-0.007396162021905184
0	5264	0.005852059926837683
0	5256	-0.001563375350087881
0	5264	0.0015660481294617057
0	5224	-0.007842419669032097
0	5230	0.0011779487831518054
0	5248	0.0035374113358557224
0	5242	-0.001179214334115386
0	5254	0.0023574403021484613
0	5254	0.0
0	5254	0.0
0	5248	-0.0011712955310940742
0	5262	0.002725538332015276
0	5244	-0.0034944217186421156
0	5290	0.008906788192689419
0	5276	-0.002702841768041253
0	5274	-0.0003850794455502182
0	5282	0.0015365113504230976
0	5288	0.0011498952517285943
0	5282	-0.001147622475400567
0	5300	0.003437301144003868
0	5286	-0.0026696836575865746
0	5286	0.0
0	5318	0.006089979782700539
0	5292	-0.004943090956658125
0	5284	-0.0015201803762465715
0	5302	0.003419279819354415
0	5332	0.0056963469833135605
0	5302	-0.0056932480074465275
0	5312	0.0018970052478834987
0	5296	-0.0030344410333782434
0	5322	0.0049290345050394535
0	5322	0.0
0	5316	-0.0011365788523107767
0	5338	0.004166088066995144
0	5430	0.017409294843673706
0	5414	-0.0030238886829465628
0	5376	-0.007174232974648476
0	5372	-0.0007545461412519217
0	5292	-0.015079733915627003
0	5194	-0.018468264490365982
0	5222	0.005278636701405048
0	5210	-0.0022626426070928574
0	5206	-0.0007544607506133616
0	5216	0.0018866026075556874
0	5236	0.0037749616894870996
0	5246	0.0018879560520872474
0	5220	-0.004909551236778498
0	5280	0.011334155686199665
0	5772	0.09294475615024567
0	6006	0.04406945779919624
1	5108	-0.16837500035762787
1	2710	-0.4501257836818695
0	2878	0.0320516899228096
0	4282	0.27208247780799866
0	5482	0.23407632112503052
0	5924	0.08610725402832031
0	6068	0.027940187603235245
0	6074	0.0011586591135710478
0	6064	-0.0019215495558455586
0	6026	-0.0072668856009840965
0	5964	-0.0118015818297863
0	5932	-0.006066427566111088
0	5870	-0.011708569712936878
0	5792	-0.01467894483357668
0	5756	-0.006755657959729433
0	5702	-0.010112864896655083
0	5666	-0.006729810498654842
0	5620	-0.008583690971136093
0	5656	0.006707324646413326
0	5608	-0.008922928012907505
0	5594	-0.002595861442387104
0	5590	-0.0007399733294732869
0	5562	-0.005167704541236162
0	5582	0.0036831507459282875
0	5548	-0.006247320212423801
0	5510	-0.0069689820520579815
0	5480	-0.005492962896823883
0	5366	-0.02084018848836422
0	5310	-0.010231923311948776
0	5204	-0.019422220066189766
0	5070	-0.024673476815223694
0	4956	-0.020995764061808586
0	4888	-0.01235345471650362
0	4834	-0.009692125953733921
0	4794	-0.0071557206101715565
0	4812	0.0032333394046872854
0	4824	0.0021700081415474415
0	4844	0.0036440049298107624
0	4894	0.009178577922284603
0	4914	0.0036979056894779205
0	4956	0.007819190621376038
0	5004	0.008992468938231468
0	5056	0.009798625484108925
0	5078	0.004166876897215843
0	5102	0.004566268064081669
0	5156	0.010316894389688969
0	5182	0.0049847266636788845
0	5206	0.004615562502294779
0	5240	0.006556112784892321
0	5248	0.0015467505436390638
0	5238	-0.0019379344303160906
0	5262	0.004661763086915016
0	5236	-0.005060991272330284
0	5268	0.00624211598187685
0	5242	-0.005082095507532358
0	5258	0.0031336911488324404
0	5242	-0.0031388550996780396
0	5256	0.0027507792692631483
0	5244	-0.002359510865062475
0	5212	-0.006294751539826393
0	5258	0.009048230946063995
0	5266	0.001571668079122901
0	5256	-0.001960604917258024
0	5254	-0.00039118019049055874
0	5284	0.005851679481565952
0	5262	-0.004277603235095739
0	5268	0.001163226435892284
0	5266	-0.00038663280429318547
0	5274	0.0015423372387886047
0	5318	0.008462189696729183
0	5290	-0.005371118430048227
0	5274	-0.0030626696534454823
0	5314	0.007643506396561861
0	5296	-0.003433935111388564
0	5330	0.0064773415215313435
0	5284	-0.0087507925927639
0	5284	0.0
0	5314	0.00569872697815299
0	5280	-0.006454144138842821
0	5296	0.0030364757403731346
0	5328	0.006071107927709818
0	5346	0.003413055557757616
0	5356	0.0018951358506456017
0	5476	0.02272440493106842
0	5462	-0.002647703979164362
0	5396	-0.012464746832847595
0	5348	-0.009057401679456234
0	5262	-0.016217030584812164
0	5174	-0.01659354567527771
0	5198	0.004527504555881023
0	5182	-0.003018602030351758
0	5220	0.007172608282417059
0	5230	0.0018880749121308327
0	5226	-0.0007553535979241133
0	5246	0.0037774336524307728
0	5266	0.003778337500989437
0	5274	0.0015112969558686018
0	5958	0.12921100854873657
0	5902	-0.010532783344388008
1	4874	-0.1925935298204422
1	2302	-0.48319828510284424
0	3478	0.22514645755290985
0	4876	0.27075183391571045
0	5706	0.16120260953903198
0	6008	0.05849916487932205
0	6066	0.011185969226062298
0	6054	-0.002302762120962143
0	6028	-0.00496486434713006
0	5974	-0.010264988988637924
0	5918	-0.010598566383123398
0	5864	-0.010180099867284298
0	5782	-0.0154067762196064
0	5770	-0.0022485102526843548
0	5704	-0.012334912084043026
0	5690	-0.002612785203382373
0	5642	-0.008945432491600513
0	5632	-0.0018607882084324956
0	5602	-0.0055725486017763615
0	5590	-0.0022243366111069918
0	5612	0.004067495930939913
0	5592	-0.003688313066959381
0	5608	0.00294323218986392
0	5586	-0.004037339240312576
0	5578	-0.001464933156967163
0	5512	-0.012059787288308144
0	5440	-0.01313485112041235
0	5370	-0.012756496667861938
0	5304	-0.012020544148981571
0	5182	-0.022308368235826492
0	5060	-0.022406700998544693
0	4942	-0.02164740487933159
0	4870	-0.012998736463487148
0	4812	-0.010384215973317623
0	4788	-0.004298558924347162
0	4808	0.0036018730606883764
0	4810	0.0003628008416853845
0	4842	0.005849236156791449
0	4874	0.005892752204090357
0	4908	0.006305716000497341
0	4954	0.008587857708334923
0	5002	0.009015326388180256
0	5034	0.006042828783392906
0	5072	0.007209805306047201
0	5152	0.015245839022099972
0	5166	0.002677410375326872
0	5196	0.00575653649866581
0	5228	0.006157872267067432
0	5218	-0.0019293349469080567
0	5236	0.0034814001992344856
0	5222	-0.0027139498852193356
0	5242	0.003886866383254528
0	5256	0.002726989332586527
0	5248	-0.0015618492616340518
0	5272	0.0046958765015006065
0	5222	-0.009802640415728092
0	5262	0.007857002317905426
0	5246	-0.00314646796323359
0	5242	-0.0007872569840401411
0	5248	0.0011813659220933914
0	5274	0.00511703547090292
0	5234	-0.007861325517296791
0	5284	0.009807896800339222
0	5258	-0.005086337216198444
0	5254	-0.0007802441832609475
0	5266	0.002333661774173379
0	5268	0.00038779230089858174
0	5268	0.0
0	5266	-0.00038558922824449837
0	5260	-0.0011538609396666288
0	5272	0.0023025264963507652
0	5312	0.007659509312361479
0	5308	-0.0007644383003935218
0	5312	0.0007631063344888389
0	5340	0.0053336042910814285
0	5336	-0.0007610350148752332
0	5440	0.019765600562095642
0	5428	-0.0022771263029426336
0	5386	-0.007959871552884579
0	5350	-0.00681551406159997
0	5316	-0.006432246882468462
0	5232	-0.015882018953561783
0	5236	0.0007563343388028443
0	5190	-0.008698941208422184
0	5220	0.0056752972304821014
0	5222	0.0003784772416111082
0	5218	-0.0007569544832222164
0	5218	0.0
0	5266	0.009087582118809223
0	5266	0.0
0	5388	0.023091481998562813
0	6158	0.14563657343387604
0	5620	-0.10116712749004364
1	4742	-0.1647547483444214
0	2546	-0.4134088158607483
0	3918	0.26275137066841125
0	5108	0.22987470030784607
0	5780	0.12994547188282013
0	6016	0.04548550024628639
0	6056	0.007672437932342291
0	6024	-0.006106870248913765
0	5990	-0.006457657553255558
0	5952	-0.0071865348145365715
0	5890	-0.011677988804876804
0	5830	-0.011260416358709335
0	5796	-0.0063614025712013245
0	5758	-0.0070894635282456875
0	5718	-0.007447865325957537
0	5662	-0.010408276692032814
0	5658	-0.0007421792834065855
0	5630	-0.0051853773184120655
0	5588	-0.007763018365949392
0	5602	0.0025820096489042044
0	5588	-0.002576212864369154
0	5588	0.0
0	5596	0.001465237233787775
0	5574	-0.004020222928375006
0	5526	-0.008752415888011456
0	5500	-0.004732033237814903
0	5424	-0.013812489807605743
0	5340	-0.01525183767080307
0	5288	-0.009444357827305794
0	5126	-0.029578598216176033
0	5028	-0.017947183921933174
0	4910	-0.021572211757302284
0	4816	-0.01694060117006302
0	4798	-0.003226538887247443
0	4822	0.0043100351467728615
0	4850	0.0050573768094182014
0	4856	0.0010913852602243423
0	4906	0.009161535650491714
0	4932	0.004796752706170082
0	4946	0.0025997820775955915
0	4980	0.006353319622576237
0	5020	0.007517101243138313
0	5060	0.0075554377399384975
0	5108	0.00910873617976904
0	5158	0.009527439251542091
0	5170	0.002294747391715646
0	5202	0.006138578522950411
0	5222	0.0038478311616927385
0	5238	0.003086340380832553
0	5258	0.003866627113893628
0	5234	-0.004650261718779802
0	5218	-0.0031072786077857018
0	5256	0.007397505454719067
0	5234	-0.004292236175388098
0	5260	0.005083884112536907
0	5246	-0.0027422301936894655
0	5248	0.0003923979529645294
0	5234	-0.002749950857833028
0	5252	0.003538106568157673
0	5248	-0.0007864314247854054
0	5260	0.0023574093356728554
0	5264	0.0007846110966056585
0	5270	0.001174198929220438
0	5266	-0.0007804877823218703
0	5300	0.006614013575017452
0	5312	0.002327144844457507
0	5290	-0.004253728780895472
0	5298	0.001542495796456933
0	5296	-0.0003846548206638545
0	5294	-0.0003837592958007008
0	5290	-0.0007658140384592116
0	5292	0.0003821510181296617
0	5278	-0.002670430578291416
0	5298	0.003809620626270771
0	5300	0.00038050301373004913
0	5300	0.0
0	5306	0.0011395434848964214
0	5278	-0.005314370151609182
0	5302	0.004553561098873615
0	5318	0.0030344792176038027
0	5314	-0.0007583321421407163
0	5382	0.012885132804512978
0	5474	0.017414787784218788
0	5432	-0.007939308881759644
0	5384	-0.009062189608812332
0	5306	-0.014714574441313744
0	5288	-0.00339439045637846
0	5172	-0.021869461983442307
0	5196	0.004526480101048946
0	5182	-0.0026413765735924244
0	5202	0.0037749616894870996
0	5216	0.0026434380561113358
0	5244	0.005288473796099424
0	5230	-0.0026446697302162647
0	5236	0.001133686862885952
0	5284	0.009073152206838131
0	5912	0.11872802674770355
0	5794	-0.02222166396677494
1	4958	-0.15694618225097656
0	2350	-0.4906498193740845
0	3214	0.16560396552085876
0	4760	0.30030688643455505
0	5696	0.1824442744255066
0	5964	0.052096832543611526
0	6052	0.017032917588949203
0	6042	-0.0019262132700532675
0	6018	-0.00460099196061492
0	5960	-0.011068702675402164
0	5910	-0.009500766173005104
0	5832	-0.014764338731765747
0	5814	-0.0033961411099880934
0	5758	-0.010532652027904987
0	5694	-0.01200900599360466
0	5684	-0.001873828936368227
0	5646	-0.007109358906745911
0	5620	-0.004856363870203495
0	5604	-0.002982700476422906
0	5598	-0.001116320607252419
0	5578	-0.0037112636491656303
0	5580	0.0003702515095937997
0	5576	-0.0007386888028122485
0	5546	-0.005527440458536148
0	5550	0.0007355014095082879
0	5518	-0.005872996523976326
0	5484	-0.006229083985090256
0	5424	-0.01097587775439024
0	5326	-0.01791197434067726
0	5218	-0.019810456782579422
0	5112	-0.019512314349412918
0	4992	-0.022068560123443604
0	4902	-0.016287628561258316
0	4858	-0.007882573641836643
0	4830	-0.005013249348849058
0	4834	0.0007198991952463984
0	4844	0.0018120319582521915
0	4858	0.002555490704253316
0	4908	0.009192978963255882
0	4948	0.007404756732285023
0	4988	0.007451287005096674
0	5018	0.005620643962174654
0	5050	0.00602598674595356
0	5110	0.011353171430528164
0	5152	0.007979835383594036
0	5182	0.005719514563679695
0	5214	0.006120340898633003
0	5238	0.004602932836860418
0	5248	0.001922583905979991
0	5260	0.002312376396730542
0	5236	-0.00463481480255723
0	5264	0.005419215187430382
0	5256	-0.001551510184071958
0	5244	-0.0023320894688367844
0	5256	0.0023366608656942844
0	5258	0.00039018807001411915
0	5240	-0.0035176400560885668
0	5246	0.001174413482658565
0	5246	0.0
0	5246	0.0
0	5248	0.00039205950452014804
0	5254	0.0011751342099159956
0	5268	0.0027372976765036583
0	5266	-0.0003901119634974748
0	5272	0.0011672393884509802
0	5246	-0.00504358159378171
0	5254	0.0015477481065317988
0	5264	0.00192958302795887
0	5270	0.0011547344038262963
0	5282	0.0023041178938001394
0	5268	-0.002682403428480029
0	5272	0.0007650328916497529
0	5294	0.00420087855309248
0	5294	0.0
0	5322	0.0053320471197366714
0	5312	-0.001902249758131802
0	5312	0.0
0	5306	-0.0011397021589800715
0	5308	0.00037973723374307156
0	5334	0.00493470998480916
0	5360	0.004932400770485401
0	5452	0.01743943616747856
0	5448	-0.0007573367329314351
0	5390	-0.01096809096634388
0	5370	-0.0037786231841892004
0	5306	-0.012082918547093868
0	5230	-0.014344132505357265
0	5204	-0.004907512106001377
0	5202	-0.00037760072154924273
0	5210	0.001510821282863617
0	5210	0.0
0	5198	-0.0022672880440950394
0	5228	0.005670220125466585
0	5222	-0.0011343298247084022
0	5238	0.0030257184989750385
0	5324	0.016266724094748497
0	6132	0.15275642275810242
0	5540	-0.11130469292402267
1	4662	-0.16479185223579407
0	2172	-0.4691327214241028
0	3324	0.22136817872524261
0	4836	0.29420921206474304
0	5724	0.1732795685529709
0	5986	0.050982680171728134
0	6082	0.018597202375531197
0	6096	0.0026988473255187273
0	6062	-0.006521489005535841
0	6010	-0.009926442988216877
0	5952	-0.011022425256669521
0	5906	-0.008706404827535152
0	5822	-0.01584148406982422
0	5782	-0.007521719206124544
0	5742	-0.0075061931274831295
0	5718	-0.004495448432862759
0	5668	-0.009346377104520798
0	5638	-0.0055974326096475124
0	5618	-0.0037239326629787683
0	5626	0.001485994434915483
0	5638	0.002223182935267687
0	5596	-0.007760244887322187
0	5606	0.0018432952929288149
0	5596	-0.0018388212192803621
0	5566	-0.005503038875758648
0	5528	-0.006956140045076609
0	5500	-0.005116024054586887
0	5414	-0.015688467770814896
0	5326	-0.016044534742832184
0	5222	-0.019055064767599106
0	5098	-0.022763710469007492
0	4996	-0.01867516338825226
0	4850	-0.026278214529156685
0	4810	-0.007134194485843182
0	4782	-0.004994708113372326
0	4786	0.0007175488863140345
0	4796	0.0018068371573463082
0	4838	0.007647951599210501
0	4892	0.00990874134004116
0	4918	0.004805263597518206
0	5004	0.016001984477043152
0	5000	-0.0007486804388463497
0	5056	0.010541110299527645
0	5090	0.006430868059396744
0	5152	0.011778265237808228
0	5174	0.004195057321339846
0	5166	-0.001530768466182053
0	5206	0.00767842773348093
0	5208	0.0003849855565931648
0	5254	0.008878023363649845
0	5228	-0.005030051339417696
0	5238	0.0019397638970986009
0	5220	-0.003499675774946809
0	5250	0.005847421009093523
0	5230	-0.003907063975930214
0	5262	0.006265009753406048
0	5244	-0.0035301961470395327
0	5252	0.0015716062625870109
0	5266	0.002753231907263398
0	5248	-0.0035412623547017574
0	5260	0.002360439160838723
0	5234	-0.0051088579930365086
0	5266	0.006278038490563631
0	5278	0.0023478770162910223
0	5260	-0.003511098911985755
0	5300	0.007778267841786146
0	5278	-0.004263841547071934
0	5296	0.0034777680411934853
0	5302	0.0011558466358110309
0	5278	-0.004611246287822723
0	5306	0.005367412231862545
0	5280	-0.004974426236003637
0	5286	0.0011458982480689883
0	5290	0.0007628152961842716
0	5304	0.0026664636097848415
0	5314	0.001902780495584011
0	5298	-0.003041747957468033
0	5380	0.015575929544866085
0	5476	0.01821516640484333
0	5414	-0.011744055896997452
0	5390	-0.004541497677564621
0	5376	-0.0026465028058737516
0	5282	-0.01775393821299076
0	5200	-0.01548143569380045
0	5182	-0.003399433335289359
0	5182	0.0
0	5196	0.002646135864779353
0	5212	0.003025070298463106
0	5224	0.002269374905154109
0	5230	0.0011349879205226898
0	5208	-0.00416209502145648
0	5256	0.009083912707865238
0	5676	0.07947321236133575
0	5986	0.058507490903139114
1	5082	-0.16985881328582764
1	2198	-0.5424995422363281
0	3488	0.2474709302186966
0	4886	0.2712947428226471
0	5772	0.17239366471767426
0	6030	0.050047848373651505
0	6084	0.01042444258928299
0	6084	0.0
0	6070	-0.002675397787243128
0	5996	-0.014071116223931313
0	5944	-0.009843762032687664
0	5898	-0.008672918193042278
0	5828	-0.013149655424058437
0	5788	-0.007489234209060669
0	5758	-0.0056026591919362545
0	5710	-0.008948545902967453
0	5684	-0.00483822962269187
0	5682	-0.00037149403942748904
0	5636	-0.008528204634785652
0	5636	0.0
0	5624	-0.002213940257206559
0	5596	-0.005151857156306505
0	5586	-0.0018352889455854893
0	5582	-0.0007323682075366378
0	5568	-0.0025575135368853807
0	5524	-0.00802109856158495
0	5458	-0.012010189704596996
0	5402	-0.010175035335123539
0	5306	-0.017427505925297737
0	5182	-0.02256104163825512
0	5074	-0.01974622532725334
0	4922	-0.02779233828186989
0	4810	-0.020144127309322357
0	4760	-0.008922198787331581
0	4748	-0.002142933662980795
0	4760	0.0021560760214924812
0	4808	0.008690403774380684
0	4822	0.0025543717201799154
0	4858	0.006619188003242016
0	4936	0.014448903501033783
0	4938	0.00037292559863999486
0	4994	0.010507618077099323
0	5036	0.007925525307655334
0	5104	0.012896047905087471
0	5152	0.009142625145614147
0	5152	0.0
0	5182	0.005756684113293886
0	5224	0.008085318841040134
0	5222	-0.00038615005905739963
0	5238	0.0030974536202847958
0	5268	0.0058226799592375755
0	5252	-0.0031125983223319054
0	5258	0.001169833936728537
0	5260	0.00039077765541151166
0	5262	0.00039159890729933977
0	5252	-0.001961912726983428
0	5252	0.0
0	5256	0.0007872259593568742
0	5256	0.0
0	5268	0.0023647183552384377
0	5266	-0.0003938972076866776
0	5276	0.001967006828635931
0	5268	-0.001569961430504918
0	5264	-0.0007826359360478818
0	5272	0.0015601435443386436
0	5280	0.0015548472292721272
0	5280	0.0
0	5268	-0.002317377831786871
0	5284	0.0030809915624558926
0	5316	0.006145179737359285
0	5294	-0.004214559216052294
0	5302	0.001529090921394527
0	5400	0.01869467832148075
0	5452	0.00989671889692545
0	5410	-0.007975894957780838
0	5386	-0.004550222773104906
0	5320	-0.012494636699557304
0	5270	-0.009457397274672985
0	5230	-0.007563724648207426
0	5216	-0.0026471700984984636
0	5208	-0.0015128784580156207
0	5204	-0.0007567254360765219
0	5228	0.004541726782917976
0	5234	0.0011356465984135866
0	5252	0.003407498821616173
0	5264	0.002271809382364154
0	5288	0.004543274641036987
0	5534	0.046557988971471786
0	6220	0.12960514426231384
0	5530	-0.1295742243528366
1	4270	-0.2362263798713684
1	2404	-0.3520312011241913
0	4126	0.33083999156951904
0	5502	0.26631227135658264
0	5988	0.09391667693853378
0	6038	0.009617851115763187
0	6060	0.004211386200040579
0	6026	-0.006476272828876972
0	5964	-0.011753108352422714
0	5912	-0.009815271943807602
0	5854	-0.010906902141869068
0	5838	-0.002998276147991419
0	5774	-0.011953084729611874
0	5746	-0.0052173263393342495
0	5692	-0.010043647140264511
0	5658	-0.006312740966677666
0	5624	-0.0063021318055689335
0	5606	-0.003330167615786195
0	5630	0.004431041888892651
0	5624	-0.0011050401953980327
0	5626	0.000367426429875195
0	5606	-0.003664882853627205
0	5590	-0.0029247249476611614
0	5590	0.0
0	5522	-0.012375937774777412
0	5472	-0.009085073135793209
0	5414	-0.010525424033403397
0	5338	-0.013781432062387466
0	5216	-0.022149063646793365
0	5110	-0.019361909478902817
0	4990	-0.021975340321660042
0	4890	-0.018232649192214012
0	4824	-0.011854441836476326
0	4804	-0.0035773057024925947
0	4804	0.0
0	4818	0.0025325308088213205
0	4840	0.004009184893220663
0	4884	0.008078236132860184
0	4902	0.0033279922790825367
0	4932	0.005583195947110653
0	4958	0.004868366755545139
0	5018	0.01129787415266037
0	5070	0.00984214711934328
0	5114	0.008365125395357609
0	5152	0.0072534773498773575
0	5182	0.005746172275394201
0	5202	0.003842459060251713
0	5216	0.0026970102917402983
0	5222	0.0011587635381147265
0	5230	0.001549086649902165
0	5266	0.006988662760704756
0	5246	-0.0038916561752557755
0	5250	0.0007801528554409742
0	5250	0.0
0	5266	0.0031344688031822443
0	5232	-0.00667189946398139
0	5260	0.005503144580870867
0	5270	0.0019673937931656837
0	5266	-0.0007873085560277104
0	5256	-0.0019676259253174067
0	5246	-0.0019657437223941088
0	5248	0.0003924903576262295
0	5264	0.0031325866002589464
0	5270	0.0011713564163073897
0	5256	-0.0027249017730355263
0	5282	0.005045734811574221
0	5284	0.00038697192212566733
0	5296	0.002315201796591282
0	5286	-0.0019242364214733243
0	5278	-0.0015356069197878242
0	5288	0.0019152684835717082
0	5318	0.005733725614845753
0	5302	-0.0030521536245942116
0	5322	0.0038095724303275347
0	5302	-0.0038045477122068405
0	5314	0.00228055939078331
0	5278	-0.006835962180048227
0	5332	0.01024901308119297
0	5306	-0.004931091330945492
0	5366	0.011373400688171387
0	5480	0.021590908989310265
0	5438	-0.007943813689053059
0	5406	-0.006045111920684576
0	5406	0.0
0	5326	-0.015083146281540394
0	5254	-0.013569715432822704
0	5220	-0.006407035514712334
0	5174	-0.008670520037412643
0	5194	0.0037720666732639074
0	5212	0.0033963972236961126
0	5222	0.0018874097149819136
0	5226	0.0007550778682343662
0	5240	0.0026431384030729532
0	5242	0.00037764827720820904
0	5538	0.055901795625686646
0	6196	0.12404796481132507
0	5446	-0.14058458805084229
1	4318	-0.21122540533542633
0	2908	-0.26565346121788025
0	4332	0.27235865592956543
0	5640	0.2516901195049286
0	5942	0.05798102915287018
0	6052	0.02103491872549057
0	6060	0.0015225334791466594
0	6050	-0.0018942981259897351
0	5998	-0.009804044850170612
0	5936	-0.01163940317928791
0	5890	-0.008600274100899696
0	5830	-0.011178874410688877
0	5796	-0.006314147263765335
0	5756	-0.007408687379211187
0	5718	-0.007026280742138624
0	5686	-0.005906674545258284
0	5644	-0.007739177905023098
0	5626	-0.003311948850750923
0	5604	-0.004040502943098545
0	5598	-0.0010995992925018072
0	5594	-0.0007313773385249078
0	5580	-0.0025532846339046955
0	5580	0.0
0	5564	-0.0029047250282019377
0	5534	-0.005435111001133919
0	5472	-0.01121170911937952
0	5418	-0.009751399978995323
0	5340	-0.014070448465645313
0	5238	-0.018421750515699387
0	5116	-0.02216167189180851
0	5024	-0.016745541244745255
0	4918	-0.019211484119296074
0	4866	-0.009311432018876076
0	4822	-0.007853870280086994
0	4822	0.0
0	4846	0.004333903081715107
0	4856	0.0018189976690337062
0	4896	0.0073294974863529205
0	4956	0.011072290129959583
0	4974	0.003343114862218499
0	4990	0.002989462111145258
0	5040	0.00939472857862711
0	5078	0.0071754977107048035
0	5096	0.003414350328966975
0	5162	0.012571747414767742
0	5166	0.0007646234007552266
0	5210	0.008438818156719208
0	5206	-0.0007692998042330146
0	5222	0.0030855070799589157
0	5236	0.0027064646128565073
0	5242	0.0011626255000010133
0	5234	-0.001553699723444879
0	5252	0.0035036723129451275
0	5250	-0.00039012718480080366
0	5238	-0.002345551736652851
0	5228	-0.001958403503522277
0	5250	0.004315361380577087
0	5268	0.003534632734954357
0	5264	-0.0007858442841097713
0	5256	-0.001571421162225306
0	5236	-0.003924954682588577
0	5254	0.0035275674890726805
0	5248	-0.0011732805287465453
0	5272	0.004681465215981007
0	5286	0.0027228877879679203
0	5258	-0.005429442971944809
0	5282	0.004641448147594929
0	5286	0.000771456107031554
0	5288	0.0003847633779514581
0	5284	-0.0007678918191231787
0	5258	-0.0049814158119261265
0	5292	0.006503028329461813
0	5284	-0.0015276699559763074
0	5302	0.003432756057009101
0	5304	0.00038091850001364946
0	5288	-0.003044603392481804
0	5280	-0.0015211246209219098
0	5294	0.002660787431523204
0	5302	0.00151960295625031
0	5334	0.006075333803892136
0	5406	0.013661028817296028
0	5470	0.01213055569678545
0	5438	-0.006056247744709253
0	5400	-0.007183365058153868
0	5330	-0.013220018707215786
0	5274	-0.010569892823696136
0	5234	-0.007547739427536726
0	5182	-0.009813048876821995
0	5204	0.004153921734541655
0	5202	-0.0003777718811761588
0	5224	0.004156904295086861
0	5228	0.0007558579090982676
0	5230	0.00037799085839651525
0	5258	0.005292472429573536
0	5378	0.022684022784233093
0	6140	0.143960103392601
0	5666	-0.08905533701181412
1	4626	-0.1949269026517868
0	2076	-0.4799247086048126
0	3276	0.23049145936965942
0	5044	0.3440134823322296
0	5794	0.14613614976406097
0	6084	0.05632234737277031
0	6112	0.005410000681877136
0	6098	-0.0026909620501101017
0	6078	-0.0038247741758823395
0	6012	-0.012558511458337307
0	5960	-0.00984885822981596
0	5914	-0.008675971068441868
0	5852	-0.011648880317807198
0	5806	-0.008614770136773586
0	5786	-0.003736222628504038
0	5732	-0.01006799004971981
0	5702	-0.005583126563578844
0	5654	-0.008916298858821392
0	5648	-0.0011123057920485735
0	5630	-0.0033292232546955347
0	5632	0.00036901276325806975
0	5628	-0.0007359886076301336
0	5618	-0.0018351990729570389
0	5610	-0.0014644325710833073
0	5572	-0.006939709652215242
0	5524	-0.008747630752623081
0	5432	-0.016736401244997978
0	5356	-0.013811151497066021
0	5266	-0.016357488930225372
0	5168	-0.017906302586197853
0	5010	-0.028957175090909004
0	4894	-0.021209942176938057
0	4806	-0.015818612650036812
0	4770	-0.00641246372833848
0	4748	-0.0039251139387488365
0	4762	0.002513434737920761
0	4804	0.007600434124469757
0	4836	0.0058368598110973835
0	4850	0.002573371632024646
0	4914	0.011853168718516827
0	4950	0.006712911184877157
0	4986	0.006755319889634848
0	5028	0.007927220314741135
0	5056	0.00531235383823514
0	5108	0.009912817738950253
0	5130	0.0042120311409235
0	5166	0.0069189961068332195
0	5166	0.0
0	5192	0.005030051339417696
0	5242	0.009701704606413841
0	5222	-0.0038904452230781317
0	5232	0.0019504076335579157
0	5254	0.004301972687244415
0	5256	0.00039201852632686496
0	5252	-0.0007858546450734138
0	5260	0.0015750097809359431
0	5232	-0.005522101651877165
0	5250	0.0035545958671718836
0	5266	0.0031618468929082155
0	5256	-0.0019761542789638042
0	5270	0.0027650133706629276
0	5270	0.0
0	5278	0.001573419664055109
0	5276	-0.0003921414609067142
0	5280	0.0007816978031769395
0	5278	-0.00038949912413954735
0	5286	0.001552795059978962
0	5286	0.0
0	5284	-0.0003858719137497246
0	5302	0.003463181434199214
0	5334	0.006141484249383211
0	5322	-0.0022974128369241953
0	5416	0.017957894131541252
0	5472	0.010671951808035374
0	5422	-0.00950341485440731
0	5382	-0.007587637286633253
0	5332	-0.009469457902014256
0	5280	-0.009837926365435123
0	5224	-0.010587078519165516
0	5216	-0.001512134913355112
0	5216	0.0
0	5222	0.0011343298247084022
0	5208	-0.002646936569362879
0	5222	0.002647703979164362
0	5248	0.004918218590319157
0	5248	0.0
0	5290	0.007945616729557514
0	5506	0.040848229080438614
0	6240	0.138584703207016
0	5526	-0.1339872181415558
1	4272	-0.23492531478405
0	2558	-0.3231157660484314
0	3890	0.25545623898506165
0	5106	0.23529715836048126
0	5846	0.14334788918495178
0	6054	0.04014565795660019
0	6098	0.008450163528323174
0	6096	-0.0003821120481006801
0	6050	-0.008743473328649998
0	5992	-0.010971134528517723
0	5928	-0.012053638696670532
0	5878	-0.009381919167935848
0	5828	-0.009349406696856022
0	5754	-0.013801679015159607
0	5744	-0.0018618274480104446
0	5698	-0.008547326549887657
0	5682	-0.0029671755619347095
0	5668	-0.0025906735099852085
0	5674	0.001107637770473957
0	5666	-0.0014727722154930234
0	5628	-0.006976402830332518
0	5648	0.003662556642666459
0	5654	0.0010959170758724213
0	5630	-0.004371797200292349
0	5590	-0.007268322166055441
0	5544	-0.008341291919350624
0	5480	-0.011584549210965633
0	5426	-0.009763271547853947
0	5312	-0.020621292293071747
0	5182	-0.02364782802760601
0	5046	-0.02479097805917263
0	4930	-0.021046265959739685
0	4802	-0.022895028814673424
0	4760	-0.007471803110092878
0	4758	-0.0003565316437743604
0	4774	0.0028708132449537516
0	4796	0.003977820742875338
0	4848	0.00947648473083973
0	4898	0.0091816121712327
0	4930	0.005917962174862623
0	4960	0.005584650672972202
0	5010	0.009363996796309948
0	5026	0.0030128045473247766
0	5092	0.012490695342421532
0	5156	0.012162984348833561
0	5190	0.006485744379460812
0	5182	-0.0015310028102248907
0	5230	0.00921541079878807
0	5216	-0.0026953830383718014
0	5222	0.0011585695901885629
0	5258	0.006971340160816908
0	5276	0.0034940149635076523
0	5252	-0.0046699270606040955
0	5280	0.005462490953505039
0	5262	-0.0035196118988096714
0	5266	0.000783811672590673
0	5274	0.0015704750549048185
0	5272	-0.00039314874447882175
0	5262	-0.001967729302123189
0	5286	0.004724099300801754
0	5260	-0.005114284809678793
0	5274	0.002749986946582794
0	5276	0.0003919724258594215
0	5272	-0.0007815247518010437
0	5272	0.0
0	5286	0.002717180410400033
0	5294	0.0015475483378395438
0	5288	-0.0011569461785256863
0	5298	0.0019228056771680713
0	5310	0.002301466418430209
0	5324	0.0026785372756421566
0	5334	0.0019088097615167499
0	5332	-0.0003809765912592411
0	5396	0.012167608365416527
0	5464	0.012903225608170033
0	5412	-0.009847987443208694
0	5370	-0.007943011820316315
0	5342	-0.005289073102176189
0	5290	-0.009815642610192299
0	5206	-0.015848657116293907
0	5206	0.0
0	5206	0.0
0	5226	0.0037767679896205664
0	5244	0.0033996475394815207
0	5216	-0.0052895392291247845
0	5224	0.0015117349103093147
0	5248	0.004536404740065336
0	5262	0.0026466697454452515
0	5656	0.0744895339012146
0	6142	0.09165545552968979
1	5252	-0.16694803535938263
1	3070	-0.4093245267868042
0	2880	-0.036140453070402145
0	4416	0.2966740131378174
0	5632	0.23616847395896912
0	5958	0.06316768378019333
0	6058	0.01929285377264023
0	6058	0.0
0	6044	-0.002674614079296589
0	6006	-0.007225342094898224
0	5936	-0.01325138472020626
0	5890	-0.008674553595483303
0	5822	-0.01277859229594469
0	5786	-0.006744435988366604
0	5752	-0.006354269105941057
0	5710	-0.007835333235561848
0	5678	-0.005958735942840576
0	5662	-0.0029736829455941916
0	5616	-0.008532422594726086
0	5612	-0.0007404573261737823
0	5612	0.0
0	5610	-0.0003683829272631556
0	5610	0.0
0	5610	0.0
0	5582	-0.005121076945215464
0	5540	-0.007664513774216175
0	5492	-0.008742637932300568
0	5436	-0.010184657759964466
0	5340	-0.01744101569056511
0	5254	-0.015654198825359344
0	5126	-0.02342548966407776
0	5004	-0.022344596683979034
0	4916	-0.0159293320029974
0	4834	-0.014663106761872768
0	4824	-0.0017837394261732697
0	4788	-0.006452460773289204
0	4830	0.0075808628462255
0	4858	0.0050915260799229145
0	4904	0.008425937034189701
0	4962	0.010698474943637848
0	4988	0.00482685212045908
0	5012	0.004481848794966936
0	5072	0.011266195215284824
0	5078	0.001131933182477951
0	5138	0.01136995293200016
0	5152	0.002663318533450365
0	5190	0.0072546773590147495
0	5212	0.004213160369545221
0	5228	0.00307294400408864
0	5236	0.0015402981080114841
0	5250	0.002702041994780302
0	5240	-0.001934535219334066
0	5234	-0.0011634972179308534
0	5248	0.002721440978348255
0	5236	-0.0023381481878459454
0	5228	-0.001562276273034513
0	5240	0.002348183421418071
0	5248	0.0015680331271141768
0	5258	0.0019624517299234867
0	5260	0.00039270101115107536
0	5266	0.001178056700155139
0	5252	-0.0027462828438729048
0	5246	-0.001175072742626071
0	5276	0.005862733814865351
0	5256	-0.0038972680922597647
0	5280	0.004663635045289993
0	5278	-0.0003874016983900219
0	5266	-0.002317706122994423
0	5304	0.007320174016058445
0	5268	-0.006917135324329138
0	5276	0.001534134498797357
0	5260	-0.003062630770727992
0	5276	0.003057792317122221
0	5286	0.0019086396787315607
0	5266	-0.0038122348487377167
0	5270	0.0007618273957632482
0	5274	0.000761257077101618
0	5314	0.0076085166074335575
0	5334	0.003801799612119794
0	5358	0.004559097345918417
0	5470	0.021259363740682602
0	5422	-0.009098490700125694
0	5386	-0.006816030479967594
0	5328	-0.010970857925713062
0	5272	-0.01058721262961626
0	5182	-0.017011303454637527
0	5194	0.002268831245601177
0	5182	-0.002269489225000143
0	5200	0.003405650844797492
0	5174	-0.00492107355967164
0	5240	0.012498738244175911
0	5248	0.0015152472769841552
0	5234	-0.0026517496444284916
0	5334	0.01894250325858593
0	6084	0.14201675355434418
0	5592	-0.09267864376306534
1	4736	-0.16093048453330994
1	2178	-0.4825504720211029
0	3708	0.29434019327163696
0	5158	0.28183430433273315
0	5798	0.12448455393314362
0	6040	0.046911951154470444
0	6066	0.005014851689338684
0	6072	0.0011514252983033657
0	6042	-0.0057283248752355576
0	5974	-0.012920388020575047
0	5944	-0.005674867890775204
0	5870	-0.013939120806753635
0	5842	-0.005255912896245718
0	5800	-0.007858889177441597
0	5772	-0.005224855151027441
0	5700	-0.01341015100479126
0	5658	-0.007809110451489687
0	5634	-0.004454839043319225
0	5606	-0.005187490489333868
0	5610	0.0007395446882583201
0	5608	-0.0003687995485961437
0	5606	-0.00036786345299333334
0	5590	-0.002935277298092842
0	5590	0.0
0	5526	-0.01168352272361517
0	5508	-0.003280281787738204
0	5436	-0.013100436888635159
0	5378	-0.010540216229856014
0	5280	-0.0178045853972435
0	5182	-0.01789170131087303
0	5068	-0.020864853635430336
0	4934	-0.024475781247019768
0	4858	-0.013652695342898369
0	4832	-0.004638715647161007
0	4782	-0.008937935344874859
0	4810	0.005035729613155127
0	4830	0.0036236699670553207
0	4882	0.009492399170994759
0	4910	0.005148573312908411
0	4932	0.004073571413755417
0	5006	0.013790705241262913
0	5050	0.008247938007116318
0	5056	0.001130511169321835
0	5112	0.010603784583508968
0	5152	0.007607165724039078
0	5182	0.005727887153625488
0	5198	0.0030649774707853794
0	5222	0.004611010197550058
0	5236	0.0026968715246766806
0	5238	0.0003861848672386259
0	5234	-0.000774223473854363
0	5240	0.0011641443707048893
0	5286	0.008946283720433712
0	5246	-0.007794738747179508
0	5252	0.001171829178929329
0	5250	-0.00039130772347562015
0	5250	0.0
0	5226	-0.004709329921752214
0	5230	0.0007856693700887263
0	5226	-0.0007859267061576247
0	5236	0.0019642505794763565
0	5242	0.0011772554134950042
0	5264	0.00430792523548007
0	5244	-0.0039059449918568134
0	5276	0.006232794839888811
0	5264	-0.002329825656488538
0	5278	0.0027101668529212475
0	5266	-0.002316304249688983
0	5276	0.0019254960352554917
0	5298	0.00422616396099329
0	5268	-0.00574947614222765
0	5308	0.007653158623725176
0	5304	-0.0007640586700290442
0	5290	-0.002669989364221692
0	5286	-0.0007619918324053288
0	5294	0.0015226880786940455
0	5300	0.0011412050807848573
0	5290	-0.001900779316201806
0	5294	0.0007599843083880842
0	5312	0.0034186735283583403
0	5320	0.0015186989912763238
0	5390	0.013281389139592648
0	5476	0.01630166918039322
0	5410	-0.012495581991970539
0	5374	-0.00680872518569231
0	5298	-0.014362928457558155
0	5258	-0.007557150907814503
0	5182	-0.014357863925397396
0	5198	0.0030235459562391043
0	5222	0.00453623291105032
0	5232	0.0018901447765529156
0	5246	0.002646269276738167
0	5256	0.0018901447765529156
0	5266	0.00189024000428617
0	5266	0.0
0	5350	0.01587681658565998
0	6056	0.1333685964345932
0	5866	-0.035717420279979706
1	4756	-0.2078833431005478
0	2138	-0.49190181493759155
0	3402	0.24229103326797485
0	4914	0.2933264374732971
0	5760	0.16454236209392548
0	5978	0.042274825274944305
0	6102	0.023939765989780426
0	6090	-0.002304648980498314
0	6026	-0.012229143641889095
0	5980	-0.008749239146709442
0	5932	-0.009089875966310501
0	5894	-0.007167287170886993
0	5816	-0.014658164232969284
0	5770	-0.008617782965302467
0	5726	-0.0082235811278224
0	5700	-0.004851832520216703
0	5684	-0.002980366814881563
0	5674	-0.0018591508269309998
0	5630	-0.008161245845258236
0	5638	0.0014804579550400376
0	5622	-0.002952610608190298
0	5618	-0.0007362324395217001
0	5630	0.0022033441346138716
0	5590	-0.007326633669435978
0	5554	-0.006580149754881859
0	5500	-0.009852336719632149
0	5438	-0.011295866221189499
0	5340	-0.017836125567555428
0	5270	-0.012740863487124443
0	5158	-0.02048305980861187
0	4998	-0.02938835322856903
0	4930	-0.012471572495996952
0	4858	-0.012983578257262707
0	4800	-0.010368251241743565
0	4782	-0.0032199204433709383
0	4770	-0.0021592052653431892
0	4802	0.005799903068691492
0	4846	0.008037997409701347
0	4920	0.013621637597680092
0	4954	0.006301353219896555
0	4978	0.004476387053728104
0	5020	0.007880417630076408
0	5054	0.006414448842406273
0	5062	0.0015165493823587894
0	5106	0.00837850570678711
0	5152	0.00879395380616188
0	5174	0.004220542497932911
0	5218	0.008468704298138618
0	5224	0.0011582117294892669
0	5220	-0.000774163578171283
0	5232	0.002328770700842142
0	5258	0.0050584315322339535
0	5238	-0.003900206880643964
0	5256	0.0035191532224416733
0	5254	-0.00039187000948004425
0	5240	-0.0027484751772135496
0	5236	-0.0007866169908083975
0	5266	0.005907449871301651
0	5252	-0.002758149756118655
0	5242	-0.001970339799299836
0	5252	0.001969253411516547
0	5270	0.0035387559328228235
0	5250	-0.003923209849745035
0	5252	0.0003913179680239409
0	5242	-0.0019508388359099627
0	5250	0.0015560165047645569
0	5274	0.0046535674482584
0	5268	-0.0011598535347729921
0	5260	-0.0015422777505591512
0	5286	0.005001474637538195
0	5306	0.0038391156122088432
0	5320	0.002681752434000373
0	5388	0.013000751845538616
0	5462	0.014117826707661152
0	5418	-0.008373084478080273
0	5374	-0.008356546051800251
0	5322	-0.009862057864665985
0	5240	-0.015537169761955738
0	5196	-0.008335859514772892
0	5216	0.0037896970752626657
0	5216	0.0
0	5204	-0.0022741055581718683
0	5226	0.004170616157352924
0	5258	0.006066810805350542
0	5280	0.0041708797216415405
0	5294	0.0026537601370364428
0	5290	-0.0007579585653729737
0	5618	0.06213141232728958
0	6208	0.1115129217505455
1	4950	-0.23634472489356995
0	2338	-0.4916243255138397
0	3196	0.16449807584285736
0	4556	0.26424527168273926
0	5578	0.19946911931037903
0	5960	0.07439915835857391
0	6052	0.017834987491369247
0	6062	0.0019285907037556171
0	6036	-0.004989062435925007
0	5988	-0.009165552444756031
0	5922	-0.012544508092105389
0	5886	-0.006814997643232346
0	5822	-0.012071372009813786
0	5772	-0.009401088580489159
0	5750	-0.004126547370105982
0	5698	-0.00973612628877163
0	5658	-0.0074762627482414246
0	5628	-0.005597293376922607
0	5636	0.0014897764194756746
0	5636	0.0
0	5602	-0.006298862863332033
0	5618	0.0029571219347417355
0	5612	-0.0011061810655519366
0	5576	-0.006620486732572317
0	5548	-0.005138243082910776
0	5522	-0.004762777127325535
0	5460	-0.011340633034706116
0	5420	-0.007309140171855688
0	5326	-0.01716288924217224
0	5224	-0.018656715750694275
0	5096	-0.02355365827679634
0	4986	-0.020223313942551613
0	4900	-0.015558477491140366
0	4832	-0.01217692345380783
0	4800	-0.005720891989767551
0	4832	0.005747539456933737
0	4854	0.003978300374001265
0	4850	-0.0007285885512828827
0	4872	0.004036944359540939
0	4916	0.00813178438693285
0	4956	0.007441675756126642
0	5000	0.008235177025198936
0	5028	0.0052696955390274525
0	5110	0.015509936958551407
0	5138	0.005318273324519396
0	5174	0.006864377297461033
0	5210	0.006887315772473812
0	5228	0.0034535243175923824
0	5236	0.0015388363972306252
0	5262	0.005014078225940466
0	5268	0.0011598835699260235
0	5258	-0.0019373088143765926
0	5272	0.0027185522485524416
0	5276	0.0007784423069097102
0	5270	-0.001169940340332687
0	5256	-0.002734802197664976
0	5248	-0.0015654555754736066
0	5220	-0.005486681591719389
0	5238	0.0035317661240696907
0	5228	-0.001963222399353981
0	5246	0.0035337076988071203
0	5238	-0.0015689966967329383
0	5248	0.001958020031452179
0	5236	-0.0023442995734512806
0	5228	-0.0015587654197588563
0	5242	0.0027202777564525604
0	5264	0.004263400565832853
0	5262	-0.00038655809476040304
0	5262	0.0
0	5282	0.0038457100745290518
0	5284	0.0003836709656752646
0	5298	0.0026800755877047777
0	5290	-0.0015285650733858347
0	5290	0.0
0	5338	0.00914564449340105
0	5306	-0.006089360918849707
0	5354	0.009126400575041771
0	5456	0.019375918433070183
0	5468	0.0022762336302548647
0	5378	-0.017046745866537094
0	5392	0.0026497752405703068
0	5320	-0.013616763055324554
0	5248	-0.013611444272100925
0	5210	-0.00718490406870842
0	5182	-0.005296343006193638
0	5192	0.001892601139843464
0	5222	0.005680096801370382
0	5228	0.0011362058576196432
0	5254	0.0049233101308345795
0	5262	0.0015147116500884295
0	5254	-0.0015143867349252105
0	5458	0.0386149138212204
0	6136	0.12815989553928375
1	5306	-0.1560189425945282
0	3054	-0.4231332838535309
0	2564	-0.09333807229995728
0	3884	0.2557907998561859
0	5206	0.2584824562072754
0	5798	0.11579235643148422
0	6016	0.042491260915994644
0	6060	0.008535513654351234
0	6058	-0.0003860407741740346
0	6002	-0.010756543837487698
0	5938	-0.01223740540444851
0	5876	-0.011806225404143333
0	5834	-0.007970547303557396
0	5772	-0.01172687765210867
0	5750	-0.0041502127423882484
0	5716	-0.006402128841727972
0	5672	-0.008272231556475163
0	5660	-0.0022519142366945744
0	5622	-0.007119126617908478
0	5586	-0.006731740199029446
0	5602	0.00298559432849288
0	5584	-0.003350624116137624
0	5588	0.0007427305681630969
0	5566	-0.004075029864907265
0	5558	-0.0014786883257329464
0	5512	-0.008485205471515656
0	5496	-0.0029467015992850065
0	5416	-0.014712372794747353
0	5322	-0.017269887030124664
0	5220	-0.018755285069346428
0	5086	-0.02477841265499592
0	4972	-0.02110876515507698
0	4870	-0.018665820360183716
0	4840	-0.005413794424384832
0	4818	-0.003947415854781866
0	4812	-0.0010790720116347075
0	4822	0.0018091469537466764
0	4834	0.0021867218893021345
0	4916	0.015054711140692234
0	4928	0.002218634122982621
0	4994	0.012283793650567532
0	5014	0.003744289977476001
0	5050	0.0067761726677417755
0	5100	0.009457874111831188
0	5156	0.010637893341481686
0	5162	0.001144077512435615
0	5172	0.0019135338952764869
0	5216	0.008446486666798592
0	5234	0.003465225687250495
0	5208	-0.005017819814383984
0	5234	0.005030051339417696
0	5262	0.0054298643954098225
0	5240	-0.004275220911949873
0	5244	0.0007790689705871046
0	5248	0.0007807010551914573
0	5252	0.0007822787738405168
0	5250	-0.00039180347812362015
0	5252	0.00039243389619514346
0	5264	0.00235713180154562
0	5258	-0.0011790135176852345
0	5280	0.004321974236518145
0	5274	-0.00117722456343472
0	5264	-0.001958173466846347
0	5272	0.001562520395964384
0	5256	-0.0031162758823484182
0	5274	0.0034958699252456427
0	5274	0.0
0	5262	-0.002316870726644993
0	5274	0.002310506533831358
0	5290	0.0030736129265278578
0	5288	-0.0003833131049759686
0	5284	-0.0007651890045963228
0	5284	0.0
0	5280	-0.0007627377053722739
0	5292	0.002285598311573267
0	5300	0.0015224176459014416
0	5278	-0.004182986915111542
0	5284	0.0011400487273931503
0	5304	0.0037985260132700205
0	5308	0.0007593687041662633
0	5326	0.0034149980638176203
0	5302	-0.0045506833121180534
0	5356	0.010236449539661407
0	5450	0.017805952578783035
0	5400	-0.00945894792675972
0	5376	-0.004535946995019913
0	5326	-0.009442513808608055
0	5278	-0.009060478769242764
0	5192	-0.01623070240020752
0	5192	0.0
0	5176	-0.0030222893692553043
0	5178	0.000378033728338778
0	5192	0.0026478376239538193
0	5212	0.003784343134611845
0	5220	0.0015143102500587702
0	5238	0.003407972166314721
0	5248	0.0018937481800094247
0	5460	0.040154051035642624
0	6194	0.1388503611087799
1	5330	-0.16249969601631165
1	3548	-0.3350715935230255
1	2618	-0.17679712176322937
0	4614	0.38596898317337036
0	5738	0.2182919830083847
0	6002	0.051119860261678696
0	6054	0.010023130103945732
0	6084	0.005754696670919657
0	6050	-0.0064885495230555534
0	5986	-0.012154514901340008
0	5952	-0.006429328117519617
0	5876	-0.014313336461782455
0	5858	-0.003378335852175951
0	5792	-0.012344293296337128
0	5724	-0.012683885172009468
0	5712	-0.002234525978565216
0	5628	-0.015611449256539345
0	5676	0.008906922303140163
0	5628	-0.008887682110071182
0	5634	0.001108565484173596
0	5622	-0.0022111120633780956
0	5606	-0.0029403837397694588
0	5602	-0.0007331647211685777
0	5590	-0.0021938111167401075
0	5548	-0.007659760303795338
0	5488	-0.010920209810137749
0	5452	-0.006541489623486996
0	5358	-0.017058445140719414
0	5276	-0.014870877377688885
0	5152	-0.022512707859277725
0	5022	-0.023751812055706978
0	4932	-0.016474464908242226
0	4842	-0.016336508095264435
0	4798	-0.007880691438913345
0	4768	-0.00536730233579874
0	4794	0.004678727127611637
0	4812	0.0032627610489726067
0	4854	0.007670672610402107
0	4880	0.004784336779266596
0	4928	0.00889646727591753
0	4958	0.005596875678747892
0	5004	0.008635254576802254
0	5030	0.004907574038952589
0	5072	0.007969135418534279
0	5112	0.007624372374266386
0	5132	0.0038270677905529737
0	5166	0.006530173122882843
0	5204	0.007320079952478409
0	5198	-0.0011593156959861517
0	5216	0.003487606067210436
0	5246	0.005828411318361759
0	5250	0.0007790184463374317
0	5242	-0.001561646000482142
0	5238	-0.0007826563669368625
0	5228	-0.001961143221706152
0	5232	0.0007861017365939915
0	5228	-0.0007874222355894744
0	5248	0.003942906856536865
0	5260	0.002367455279454589
0	5248	-0.0023677044082432985
0	5258	0.001971842022612691
0	5252	-0.0011812729062512517
0	5226	-0.005108122248202562
0	5242	0.003135574283078313
0	5294	0.010161145590245724
0	5260	-0.006621140521019697
0	5274	0.0027181298937648535
0	5276	0.0003871467197313905
0	5270	-0.0011582862352952361
0	5296	0.0050066751427948475
0	5290	-0.0011526638409122825
0	5290	0.0
0	5296	0.001148120267316699
0	5302	0.001146175665780902
0	5316	0.002670498564839363
0	5302	-0.002667039167135954
0	5328	0.004947731737047434
0	5290	-0.007223876658827066
0	5316	0.004939960315823555
0	5286	-0.0056956978514790535
0	5318	0.006072720512747765
0	5330	0.0022762336302548647
0	5416	0.016304761171340942
0	5468	0.009847862645983696
0	5402	-0.012481089681386948
0	5380	-0.004155804868787527
0	5290	-0.01698519103229046
0	5228	-0.0116963479667902
0	5182	-0.008679026737809181
0	5182	0.0
0	5198	0.0030215282458812
0	5208	0.0018891687504947186
0	5236	0.0052911387756466866
0	5230	-0.0011337439063936472
0	5208	-0.004157375544309616
0	5254	0.008697406388819218
0	5324	0.013235683552920818
0	6014	0.13042491674423218
0	5690	-0.06095954775810242
1	4780	-0.1707637459039688
1	2266	-0.4732859134674072
0	3500	0.2368067502975464
0	4880	0.2678917944431305
0	5710	0.16155822575092316
0	6006	0.05746382474899292
0	6096	0.01739444024860859
0	6074	-0.004230335354804993
0	6022	-0.009951391257345676
0	5986	-0.006857404485344887
0	5928	-0.011001239530742168
0	5870	-0.01095676515251398
0	5802	-0.012801365926861763
0	5762	-0.007507977541536093
0	5736	-0.00486964313313365
0	5688	-0.008975094184279442
0	5698	0.0018664841772988439
0	5690	-0.001490238937549293
0	5642	-0.008919280022382736
0	5652	0.0018534307600930333
0	5638	-0.002587290247902274
0	5634	-0.0007371550891548395
0	5594	-0.007351860404014587
0	5594	0.0
0	5592	-0.0003659250505734235
0	5548	-0.008032617159187794
0	5472	-0.01384587399661541
0	5386	-0.015646984800696373
0	5340	-0.008366171270608902
0	5162	-0.032506268471479416
0	5062	-0.018320834264159203
0	4964	-0.017923550680279732
0	4846	-0.021232185885310173
0	4800	-0.00821066927164793
0	4776	-0.00428586732596159
0	4772	-0.0007183048292063177
0	4784	0.0021709504071623087
0	4838	0.009847186505794525
0	4882	0.00808437168598175
0	4920	0.0070310477167367935
0	4964	0.008195092901587486
0	4972	0.0014989882474765182
0	5044	0.013566986657679081
0	5112	0.012874561361968517
0	5152	0.0076044658198952675
0	5202	0.009540892206132412
0	5198	-0.000765638193115592
0	5234	0.006912796292454004
0	5232	-0.0003851684450637549
0	5238	0.001158554689027369
0	5244	0.0011616500560194254
0	5240	-0.000776407599914819
0	5250	0.0019459796603769064
0	5248	-0.0003900662995874882
0	5252	0.0007818914018571377
0	5260	0.0015672547742724419
0	5276	0.0031404157634824514
0	5270	-0.0011791680008172989
0	5240	-0.005900323856621981
0	5238	-0.0003936129796784371
0	5224	-0.0027539178263396025
0	5240	0.0031439948361366987
0	5246	0.0011768705444410443
0	5280	0.0066515374928712845
0	5280	0.0
0	5294	0.0027214058209210634
0	5284	-0.0019373088143765926
0	5270	-0.00270350300706923
0	5300	0.005777155980467796
0	5296	-0.0007682262221351266
0	5274	-0.0042150975205004215
0	5276	0.00038243355811573565
0	5316	0.007633879315108061
0	5334	0.0034293117932975292
0	5344	0.0019024909706786275
0	5442	0.018621739000082016
0	5484	0.007968631573021412
0	5442	-0.007954243570566177
0	5346	-0.018157288432121277
0	5322	-0.004536062013357878
0	5266	-0.010578545741736889
0	5216	-0.009443821385502815
0	5212	-0.0007556199561804533
0	5230	0.0034011034294962883
0	5222	-0.0015117729781195521
0	5210	-0.002268088050186634
0	5222	0.002268802607432008
0	5264	0.007943512871861458
0	5270	0.0011348305270075798
0	5304	0.0064294901676476
0	5892	0.11114611476659775
0	5942	0.009411587379872799
1	4848	-0.20502248406410217
1	2324	-0.47419244050979614
0	3848	0.2917192876338959
0	5250	0.270841121673584
0	5844	0.11478260904550552
0	6030	0.035812851041555405
0	6048	0.0034489366225898266
0	6028	-0.0038139312528073788
0	6006	-0.004175893496721983
0	5960	-0.008691160939633846
0	5920	-0.0075251152738928795
0	5850	-0.013119260780513287
0	5810	-0.007472631521522999
0	5754	-0.010431413538753986
0	5704	-0.009295754134654999
0	5668	-0.006683830171823502
0	5656	-0.0022248316090554
0	5618	-0.007031828165054321
0	5632	0.0025859521701931953
0	5608	-0.0044230930507183075
0	5630	0.004044761881232262
0	5614	-0.0029341287445276976
0	5594	-0.0036590720992535353
0	5582	-0.0021904739551246166
0	5550	-0.005828071851283312
0	5536	-0.0025447141379117966
0	5444	-0.016694895923137665
0	5402	-0.0076135690324008465
0	5310	-0.016667472198605537
0	5194	-0.02108963020145893
0	5068	-0.02301201783120632
0	4910	-0.028817743062973022
0	4868	-0.007541839499026537
0	4774	-0.016776926815509796
0	4814	0.007159391418099403
0	4850	0.006483293604105711
0	4848	-0.0003627525584306568
0	4888	0.007308071944862604
0	4918	0.0055193728767335415
0	4920	0.0003704298287630081
0	5004	0.01565859280526638
0	5052	0.008998988196253777
0	5144	0.017334505915641785
0	5136	-0.0015136798610910773
0	5162	0.004938709549605846
0	5206	0.008386596105992794
0	5248	0.008028955198824406
0	5256	0.0015333110932260752
0	5218	-0.007300111465156078
0	5284	0.012712843716144562
0	5256	-0.005404571071267128
0	5320	0.012383101508021355
0	5302	-0.0034893639385700226
0	5258	-0.008545680902898312
0	5250	-0.00155702605843544
0	5230	-0.0039001558907330036
0	5238	0.0015631717396900058
0	5288	0.009782949462532997
0	5248	-0.007832182571291924
0	5276	0.005484746769070625
0	5226	-0.00978895090520382
0	5248	0.004302701447159052
0	5234	-0.0027320627123117447
0	5278	0.00856608897447586
0	5278	0.0
0	5268	-0.001934685162268579
0	5292	0.004630761221051216
0	5256	-0.006926362868398428
0	5268	0.002303351415321231
0	5284	0.0030642731580883265
0	5258	-0.004967899527400732
0	5246	-0.002289173426106572
0	5286	0.00762117700651288
0	5282	-0.0007614310015924275
0	5280	-0.0003803631116170436
0	5296	0.0030406303703784943
0	5310	0.002659035613760352
0	5278	-0.006075411103665829
0	5278	0.0
0	5294	0.0030361299868673086
0	5286	-0.001517968950793147
0	5310	0.004553042817860842
0	5408	0.018592767417430878
0	5446	0.007204610854387283
0	5370	-0.014392122626304626
0	5376	0.0011353602167218924
0	5310	-0.012477471493184566
0	5256	-0.010204210877418518
0	5200	-0.010584277100861073
0	5182	-0.003403118345886469
0	5222	0.007566967513412237
0	5216	-0.001135073835030198
0	5236	0.003784343134611845
0	5250	0.0026490066666156054
0	5228	-0.004163459874689579
0	5242	0.002650310518220067
0	5320	0.014768438413739204
0	5936	0.11661218851804733
0	5622	-0.059187956154346466
0	4904	-0.1350402534008026
1	2958	-0.36687445640563965
0	3748	0.15112097561359406
0	5082	0.25764501094818115
0	5730	0.12531748414039612
0	5858	0.0246827881783247
0	5944	0.0165223628282547
0	5950	0.0011479592649266124
0	5912	-0.007240853738039732
0	5900	-0.0022774143144488335
0	5846	-0.010208196938037872
0	5782	-0.012056666426360607
0	5772	-0.001878004870377481
0	5738	-0.006366802379488945
0	5684	-0.010091193951666355
0	5632	-0.009703061543405056
0	5606	-0.0048436373472213745
0	5588	-0.00334850512444973
0	5552	-0.006685485132038593
0	5550	-0.00037073655403219163
0	5554	0.000739872979465872
0	5550	-0.000738179893232882
0	5550	0.0
0	5532	-0.0033083371818065643
0	5486	-0.00843933504074812
0	5450	-0.006595178507268429
0	5422	-0.005122638773173094
0	5350	-0.013158055953681469
0	5258	-0.016809998080134392
0	5152	-0.019448351114988327
0	5062	-0.016560353338718414
0	4970	-0.01691197231411934
0	4932	-0.006900308653712273
0	4870	-0.01117828767746687
0	4864	-0.0010831498075276613
0	4876	0.0021776477806270123
0	4900	0.004381320904940367
0	4936	0.006613999605178833
0	4946	0.001848702086135745
0	5002	0.010414729826152325
0	5026	0.004488442093133926
0	5032	0.0011278761085122824
0	5094	0.011709748767316341
0	5134	0.007587061729282141
0	5182	0.009139375761151314
0	5182	0.0
0	5194	0.0022987332195043564
0	5248	0.010371584445238113
0	5242	-0.001154912170022726
0	5242	0.0
0	5262	0.00386503292247653
0	5252	-0.0019361583981662989
0	5256	0.0007759557338431478
0	5254	-0.0003887168422807008
0	5256	0.00038941821549087763
0	5246	-0.0019500019261613488
0	5256	0.0019525911193341017
0	5248	-0.0015637624310329556
0	5246	-0.0003912005922757089
0	5262	0.0031298494432121515
0	5248	-0.002736655529588461
0	5252	0.0007809551316313446
0	5248	-0.0007795244455337524
0	5234	-0.002722746692597866
0	5250	0.0031043849885463715
0	5230	-0.003870817832648754
0	5248	0.0034757982939481735
0	5250	0.00038533666520379484
0	5278	0.005383856128901243
0	5252	-0.00498867966234684
0	5270	0.0034481878392398357
0	5256	-0.0026777517050504684
0	5292	0.006875827442854643
0	5328	0.006867170799523592
0	5310	-0.0034293553326278925
0	5284	-0.004949489608407021
0	5302	0.0034243534319102764
0	5338	0.006844019517302513
0	5364	0.004940085578709841
0	5294	-0.013289961963891983
0	5304	0.001897941343486309
0	5430	0.02390770986676216
0	5480	0.009476516395807266
0	5402	-0.014762476086616516
0	5380	-0.0041598910465836525
0	5310	-0.013225680217146873
0	5272	-0.007176762446761131
0	5218	-0.010197530500590801
0	5198	-0.0037775763776153326
0	5206	0.0015114874113351107
0	5206	0.0
0	5208	0.00037810520734637976
0	5220	0.0022692603524774313
0	5224	0.0007565536652691662
0	5206	-0.0034047062508761883
0	5232	0.004919273313134909
0	5760	0.0998978316783905
0	5810	0.009429573081433773
1	4954	-0.16086798906326294
0	2332	-0.4937542974948883
0	3058	0.1392672210931778
0	4376	0.25645682215690613
0	5468	0.21370142698287964
0	5944	0.09304507821798325
0	6038	0.018300991505384445
0	6012	-0.005038173869252205
0	6010	-0.00038573797792196274
0	5942	-0.013055665418505669
0	5868	-0.01415292825549841
0	5858	-0.0019064323278144002
0	5780	-0.014817065559327602
0	5766	-0.002651481656357646
0	5716	-0.009449533186852932
0	5686	-0.005661303177475929
0	5644	-0.007911690510809422
0	5628	-0.0030089893843978643
0	5616	-0.0022522523067891598
0	5604	-0.0022474154829978943
0	5636	0.005978700704872608
0	5636	0.0
0	5592	-0.008176513947546482
0	5588	-0.0007415463915094733
0	5566	-0.004068950191140175
0	5498	-0.012549984268844128
0	5420	-0.01437134575098753
0	5372	-0.0088322963565588
0	5270	-0.018752528354525566
0	5152	-0.02175944298505783
0	5044	-0.019996296614408493
0	4926	-0.021835677325725555
0	4834	-0.016756316646933556
0	4818	-0.002883056178689003
0	4816	-0.00035942779504694045
0	4812	-0.0007216742960736156
0	4830	0.0032697943970561028
0	4838	0.0014639502624049783
0	4900	0.011427448131144047
0	4954	0.010021279565989971
0	4956	0.00037344088195823133
0	5022	0.012393900193274021
0	5046	0.004530581180006266
0	5072	0.004930904135107994
0	5138	0.012572066858410835
0	5166	0.005353250540792942
0	5166	0.0
0	5198	0.0061571612022817135
0	5234	0.006945963017642498
0	5242	0.0015473489183932543
0	5254	0.002326452871784568
0	5258	0.0007774034747853875
0	5262	0.0007793118711560965
0	5254	-0.0015619711484760046
0	5262	0.001565373851917684
0	5254	-0.0015684838872402906
0	5258	0.0007854945142753422
0	5270	0.0023589851334691048
0	5252	-0.0035408444236963987
0	5256	0.0007869472028687596
0	5276	0.003932054154574871
0	5282	0.0011778254993259907
0	5278	-0.0007833921117708087
0	5264	-0.00273394794203341
0	5272	0.0015577335143461823
0	5278	0.0011648525251075625
0	5296	0.0034840507432818413
0	5296	0.0
0	5304	0.0015392903005704284
0	5290	-0.0026867964770644903
0	5326	0.006894086487591267
0	5316	-0.001910511520691216
0	5432	0.0221205186098814
0	5454	0.00418500229716301
0	5406	-0.009108850732445717
0	5382	-0.004546717740595341
0	5326	-0.010594556108117104
0	5258	-0.012851850129663944
0	5208	-0.009446319192647934
0	5230	0.004157061222940683
0	5214	-0.0030235459562391043
0	5220	0.001134115387685597
0	5222	0.00037812901427969337
0	5234	0.0022693462669849396
0	5244	0.0018913601525127888
0	5246	0.0003783149877563119
0	5338	0.017403366044163704
0	5986	0.12251843512058258
0	5786	-0.037644460797309875
1	4908	-0.16470736265182495
0	2682	-0.41849446296691895
0	3930	0.23850475251674652
0	5152	0.23556475341320038
0	5778	0.12077169865369797
0	6002	0.043073058128356934
0	6020	0.003445108188316226
0	6022	0.00038098625373095274
0	5962	-0.011377139016985893
0	5942	-0.0037764827720820904
0	5876	-0.012412547133862972
0	5844	-0.005996177438646555
0	5800	-0.008218154311180115
0	5746	-0.01005561649799347
0	5724	-0.0040887631475925446
0	5660	-0.011874721385538578
0	5626	-0.006298550870269537
0	5620	-0.0011098368559032679
0	5598	-0.004062038380652666
0	5618	0.0036850508768111467
0	5596	-0.004043374210596085
0	5602	0.001100271358154714
0	5596	-0.0010976680787280202
0	5576	-0.003650523256510496
0	5546	-0.005464016459882259
0	5512	-0.006180844269692898
0	5466	-0.00834876112639904
0	5382	-0.015225298702716827
0	5296	-0.015583662316203117
0	5140	-0.028386345133185387
0	5014	-0.02301762066781521
0	4906	-0.019716663286089897
0	4822	-0.015130409970879555
0	4780	-0.007524903863668442
0	4804	0.0043095191940665245
0	4826	0.003973557613790035
0	4862	0.006548550445586443
0	4886	0.004396570846438408
0	4942	0.010330324992537498
0	4980	0.007054106332361698
0	4982	0.0003734920173883438
0	5032	0.009389553219079971
0	5060	0.005285013001412153
0	5134	0.014032869599759579
0	5162	0.005330355372279882
0	5194	0.006113636773079634
0	5182	-0.0022994379978626966
0	5226	0.008455251343548298
0	5256	0.005779529921710491
0	5246	-0.0019307503243908286
0	5274	0.0054190754890441895
0	5276	0.0003878825227729976
0	5282	0.0011661051539704204
0	5274	-0.0015579761238768697
0	5260	-0.0027318140491843224
0	5266	0.0011729593388736248
0	5254	-0.002349685411900282
0	5250	-0.0007843137136660516
0	5254	0.0007849909598007798
0	5242	-0.0023556200321763754
0	5232	-0.0019617073703557253
0	5262	0.005876745097339153
0	5238	-0.0046904925256967545
0	5266	0.0054574511013925076
0	5278	0.0023315458092838526
0	5276	-0.0003874016983900219
0	5262	-0.0027039553970098495
0	5264	0.0003852871886920184
0	5272	0.0015374169452115893
0	5278	0.0011506302980706096
0	5276	-0.0003828141780104488
0	5304	0.005349364597350359
0	5272	-0.006102987565100193
0	5298	0.004952003713697195
0	5294	-0.0007610542816109955
0	5330	0.006843759678304195
0	5316	-0.0026591704227030277
0	5424	0.02049621008336544
0	5482	0.010993454605340958
0	5384	-0.018548661842942238
0	5372	-0.0022692889906466007
0	5332	-0.007559626828879118
0	5268	-0.01209113746881485
0	5216	-0.00982491485774517
0	5200	-0.00302415550686419
0	5222	0.004159786272794008
0	5234	0.0022696037776768208
0	5238	0.0007566299755126238
0	5228	-0.0018917180132120848
0	5242	0.002648839494213462
0	5258	0.003027245169505477
0	5344	0.0162687748670578
0	6048	0.13310812413692474
0	5582	-0.08766099810600281
0	4812	-0.14456111192703247
1	2790	-0.3807240426540375
0	3394	0.11553027480840683
0	4698	0.25242945551872253
0	5656	0.18613025546073914
0	5932	0.05349113419651985
0	6016	0.01621141843497753
0	6044	0.00537820253521204
0	6016	-0.0053528412245213985
0	5962	-0.010274624451994896
0	5932	-0.005684186704456806
0	5862	-0.013209872879087925
0	5810	-0.009780319407582283
0	5760	-0.009375117719173431
0	5726	-0.006361719686537981
0	5688	-0.007099353242665529
0	5644	-0.00820477120578289
0	5628	-0.0029785174410790205
0	5622	-0.0011148962657898664
0	5588	-0.006303923204541206
0	5598	0.0018498421413823962
0	5582	-0.002952501643449068
0	5590	0.001472989097237587
0	5558	-0.005879110656678677
0	5580	0.004033983219414949
0	5552	-0.005123138427734375
0	5494	-0.010592188686132431
0	5442	-0.009482821449637413
0	5390	-0.009477175772190094
0	5272	-0.021592212840914726
0	5162	-0.020166464149951935
0	5076	-0.015732858330011368
0	4938	-0.02489866130053997
0	4880	-0.010368376038968563
0	4852	-0.004999999888241291
0	4838	-0.0025120216887444258
0	4838	0.0
0	4864	0.004729451145976782
0	4920	0.010259917937219143
0	4936	0.0029511582106351852
0	4970	0.006311022210866213
0	4990	0.00373459467664361
0	5058	0.012766916304826736
0	5072	0.002640911377966404
0	5134	0.011746280826628208
0	5152	0.003423007670789957
0	5174	0.004197939299046993
0	5220	0.008803827688097954
0	5212	-0.0015350962057709694
0	5248	0.006926096044480801
0	5242	-0.0011568717891350389
0	5264	0.004251591395586729
0	5242	-0.004260318353772163
0	5250	0.0015526944771409035
0	5262	0.002333692042157054
0	5266	0.0007795041892677546
0	5248	-0.003514298237860203
0	5240	-0.001564414706081152
0	5238	-0.0003916193381883204
0	5250	0.0023520495742559433
0	5232	-0.003528581466525793
0	5220	-0.0023513121996074915
0	5260	0.007830342277884483
0	5276	0.003125569550320506
0	5272	-0.0007793827098794281
0	5268	-0.0007772624958306551
0	5256	-0.0023253110703080893
0	5272	0.0030920663848519325
0	5250	-0.004240446258336306
0	5274	0.00461615389212966
0	5262	-0.002303086221218109
0	5248	-0.002681923797354102
0	5268	0.0038250181823968887
0	5292	0.004583884961903095
0	5282	-0.001907280646264553
0	5272	-0.0019054878503084183
0	5270	-0.00038080732338130474
0	5276	0.0011417262721806765
0	5280	0.0007608805317431688
0	5280	0.0
0	5274	-0.0011405977420508862
0	5288	0.0026608549524098635
0	5270	-0.003420579247176647
0	5290	0.0037999695632606745
0	5322	0.00607841182500124
0	5320	-0.00037975647137500346
0	5354	0.006453653797507286
0	5464	0.02086547389626503
0	5434	-0.005682535469532013
0	5384	-0.009459186345338821
0	5380	-0.0007560959784314036
0	5304	-0.01435244083404541
0	5258	-0.008682412095367908
0	5218	-0.007550018839538097
0	5220	0.00037763873115181923
0	5220	0.0
0	5250	0.00566814886406064
0	5250	0.0
0	5260	0.0018897162517532706
0	5264	0.0007558388751931489
0	5286	0.004157375544309616
0	5700	0.07822242379188538
0	5926	0.04257991537451744
1	5070	-0.16061241924762726
1	2682	-0.4486866295337677
0	3336	0.12491564452648163
0	4768	0.27692902088165283
0	5674	0.17577670514583588
0	5960	0.0553455576300621
0	6054	0.018111053854227066
0	6074	0.003834355855360627
0	6032	-0.008011190220713615
0	6004	-0.005315647926181555
0	5928	-0.014361481182277203
0	5862	-0.012421892024576664
0	5816	-0.008628451265394688
0	5774	-0.00785379484295845
0	5740	-0.006341232918202877
0	5686	-0.010054118931293488
0	5660	-0.004833312705159187
0	5642	-0.0033404265996068716
0	5626	-0.0029644635505974293
0	5596	-0.005547337234020233
0	5596	0.0
0	5600	0.0007363950717262924
0	5606	0.0011020228266716003
0	5580	-0.004764173645526171
0	5572	-0.001462950836867094
0	5512	-0.010950637049973011
0	5446	-0.012027261778712273
0	5384	-0.01128586009144783
0	5280	-0.018919870257377625
0	5196	-0.015320452861487865
0	5070	-0.023083124309778214
0	4958	-0.020518332719802856
0	4866	-0.016623301431536674
0	4836	-0.005371146369725466
0	4808	-0.005011036526411772
0	4828	0.0035978988744318485
0	4854	0.004709234926849604
0	4856	0.00036489247577264905
0	4910	0.009925618767738342
0	4948	0.00703304260969162
0	4992	0.008196924813091755
0	5022	0.005621486809104681
0	5074	0.009795303456485271
0	5116	0.007948624901473522
0	5152	0.006841504946351051
0	5162	0.0019075232557952404
0	5218	0.010717840865254402
0	5212	-0.001151587232016027
0	5246	0.006543662864714861
0	5260	0.0027010340709239244
0	5254	-0.0011600927682593465
0	5256	0.00038755181594751775
0	5258	0.0003884148900397122
0	5252	-0.0011678757146000862
0	5260	0.001560488366521895
0	5250	-0.0019545755349099636
0	5254	0.0007831670809537172
0	5248	-0.0011762245558202267
0	5242	-0.0011772708967328072
0	5256	0.002747648162767291
0	5286	0.005885507445782423
0	5268	-0.003526323242112994
0	5268	0.0
0	5258	-0.0019500019261613488
0	5270	0.002333601238206029
0	5270	0.0
0	5270	0.0
0	5260	-0.0019281692802906036
0	5262	0.00038463511737063527
0	5276	0.0026863839011639357
0	5260	-0.0030637255404144526
0	5284	0.004587740171700716
0	5294	0.0019083726219832897
0	5282	-0.002286846749484539
0	5290	0.0015229586279019713
0	5318	0.005325691308826208
0	5316	-0.00038003065856173635
0	5270	-0.00873528327792883
0	5296	0.004935522098094225
0	5284	-0.002277212683111429
0	5300	0.0030358226504176855
0	5272	-0.005311144981533289
0	5290	0.003413961734622717
0	5304	0.0026547666639089584
0	5290	-0.0026538942474871874
0	5306	0.0030324473045766354
0	5310	0.0007578436634503305
0	5290	-0.0037878789007663727
0	5292	0.00037868748768232763
0	5296	0.0007571359747089446
0	5336	0.007569449953734875
0	5338	0.00037835314287804067
0	5454	0.02193480171263218
0	5442	-0.002266460098326206
0	5420	-0.004150369204580784
0	5374	-0.008669866248965263
0	5290	-0.01582159288227558
0	5196	-0.017702892422676086
0	5222	0.004898512735962868
0	5180	-0.007914970628917217
0	5200	0.003771307645365596
0	5182	-0.0033954575192183256
0	5212	0.005662728101015091
0	5204	-0.0015108402585610747
0	5238	0.006424225401133299
0	5248	0.0018900971626862884
0	5512	0.04992058128118515
0	6200	0.12993554770946503
1	5380	-0.1539636254310608
0	2462	-0.5475972890853882
0	2740	0.05310748890042305
0	4126	0.26916104555130005
0	5424	0.2539554238319397
0	5876	0.08835718035697937
0	6054	0.03466632217168808
0	6042	-0.0023255213163793087
0	6018	-0.004629034548997879
0	5978	-0.0076800985261797905
0	5954	-0.004587857518345118
0	5888	-0.012563611380755901
0	5844	-0.008344396017491817
0	5756	-0.01663537137210369
0	5724	-0.006033333949744701
0	5678	-0.008658225648105145
0	5676	-0.00037588801933452487
0	5648	-0.005254006013274193
0	5620	-0.0052450173534452915
0	5634	0.0026171160861849785
0	5640	0.0011185682378709316
0	5630	-0.0018594504799693823
0	5616	-0.002595989964902401
0	5578	-0.007028187159448862
0	5568	-0.0018450184725224972
0	5526	-0.0077321482822299
0	5486	-0.007349428255110979
0	5428	-0.01064050942659378
0	5314	-0.020891109481453896
0	5208	-0.01944858953356743
0	5102	-0.019567303359508514
0	4988	-0.02108014188706875
0	4906	-0.014930445700883865
0	4838	-0.012220690958201885
0	4810	-0.0050106775015592575
0	4774	-0.006465981714427471
0	4806	0.005785711575299501
0	4830	0.0043721687979996204
0	4872	0.007708024699240923
0	4934	0.011458846740424633
0	4942	0.001488132169470191
0	4994	0.009733938612043858
0	5048	0.010165024548768997
0	5088	0.007567445281893015
0	5152	0.012159133329987526
0	5166	0.002669480163604021
0	5196	0.005738990847021341
0	5216	0.0038377405144274235
0	5250	0.00654223607853055
0	5252	0.0003857528790831566
0	5280	0.00541383633390069
0	5282	0.00038760193274356425
0	5266	-0.003107801778241992
0	5264	-0.0003893575631082058
0	5272	0.001560610136948526
0	5250	-0.004299954045563936
0	5266	0.0031328729819506407
0	5268	0.0003921722527593374
0	5258	-0.0019629138987511396
0	5252	-0.0011781801003962755
0	5266	0.002748295199126005
0	5250	-0.0031375421676784754
0	5240	-0.0019576111808419228
0	5246	0.0011720124166458845
0	5248	0.00038963567931205034
0	5244	-0.0007770611555315554
0	5272	0.005422923713922501
0	5272	0.0
0	5266	-0.001155282836407423
0	5272	0.001152368844486773
0	5256	-0.0030663481447845697
0	5286	0.005737893283367157
0	5302	0.0030545233748853207
0	5286	-0.003049593884497881
0	5290	0.0007614406058564782
0	5290	0.0
0	5282	-0.0015203538350760937
0	5286	0.0007597630028612912
0	5304	0.0034174188040196896
0	5308	0.0007591669564135373
0	5354	0.008727327920496464
0	5456	0.019342849031090736
0	5446	-0.0018942741444334388
0	5422	-0.004541096743196249
0	5374	-0.009073152206838131
0	5284	-0.017001233994960785
0	5218	-0.01246490329504013
0	5216	-0.0003778385289479047
0	5218	0.00037796227843500674
0	5230	0.002268345095217228
0	5222	-0.0015124398050829768
0	5248	0.00491679273545742
0	5262	0.0026475372724235058
0	5262	0.0
0	5302	0.007562580052763224
0	5648	0.06539406627416611
0	6216	0.10707956552505493
0	5492	-0.13568386435508728
1	4436	-0.19763191044330597
0	2594	-0.34652718901634216
0	3994	0.26787421107292175
0	5272	0.24651509523391724
0	5846	0.11072958260774612
0	6044	0.038062773644924164
0	6024	-0.003826139960438013
0	6024	0.0
0	6006	-0.0034115894231945276
0	5940	-0.012452203780412674
0	5882	-0.01089802198112011
0	5846	-0.006739889737218618
0	5784	-0.011568747460842133
0	5746	-0.007071609143167734
0	5698	-0.008916519582271576
0	5660	-0.0070479135029017925
0	5650	-0.0018519889563322067
0	5618	-0.005916284862905741
0	5614	-0.0007380165043286979
0	5604	-0.0018405586015433073
0	5598	-0.0011017124634236097
0	5572	-0.004763009492307901
0	5590	0.0032905961852520704
0	5558	-0.0058368598110973835
0	5530	-0.005097643937915564
0	5498	-0.00581641960889101
0	5452	-0.008349164389073849
0	5354	-0.017771223559975624
0	5276	-0.014169623143970966
0	5170	-0.019366391003131866
0	5058	-0.020502807572484016
0	4962	-0.017507385462522507
0	4882	-0.014382452704012394
0	4846	-0.006437845062464476
0	4808	-0.006812802981585264
0	4830	0.003968874458223581
0	4846	0.002907681278884411
0	4880	0.006223231088370085
0	4936	0.010322073474526405
0	4944	0.0014843401731923223
0	4990	0.008587857708334923
0	5042	0.009762203320860863
0	5076	0.006415255833417177
0	5114	0.007202062290161848
0	5160	0.008753234520554543
0	5178	0.0034369074273854494
0	5210	0.006128859240561724
0	5230	0.0038413277361541986
0	5254	0.004621072206646204
0	5258	0.0007719623390585184
0	5246	-0.0023210530634969473
0	5244	-0.00038772213156335056
0	5240	-0.0007770913653075695
0	5242	0.0003894283145200461
0	5238	-0.0007804573397152126
0	5250	0.00234582694247365
0	5218	-0.006265664007514715
0	5238	0.003922030329704285
0	5226	-0.0023550037294626236
0	5234	0.0015705161495134234
0	5230	-0.0007849293760955334
0	5248	0.0035282126627862453
0	5240	-0.0015651697758585215
0	5252	0.002342286054044962
0	5270	0.003504172433167696
0	5256	-0.0027173210401088
0	5262	0.0011613651877269149
0	5294	0.006177367642521858
0	5298	0.0007701193680986762
0	5296	-0.0003841671859845519
0	5280	-0.003066426608711481
0	5272	-0.0015303780091926455
0	5304	0.006112547125667334
0	5300	-0.0007629608153365552
0	5302	0.00038102982216514647
0	5274	-0.005329611245542765
0	5310	0.0068481857888400555
0	5310	0.0
0	5318	0.0015200841007754207
0	5352	0.0064577399753034115
0	5340	-0.0022778466809540987
0	5434	0.017832526937127113
0	5496	0.011747763492166996
0	5406	-0.017025677487254143
0	5394	-0.002267745090648532
0	5280	-0.02152242884039879
0	5206	-0.013968062587082386
0	5200	-0.0011326310923323035
0	5194	-0.0011329019907861948
0	5216	0.004154810681939125
0	5216	0.0
0	5208	-0.0015111446846276522
0	5234	0.004912457428872585
0	5236	0.00037789560155943036
0	5254	0.003401403548195958
0	5356	0.019276563078165054
0	6138	0.147693932056427
0	5454	-0.12847644090652466
1	4590	-0.16212362051010132
0	2350	-0.4221901297569275
0	3534	0.22736582159996033
0	4806	0.2470254749059677
0	5648	0.16401319205760956
0	5942	0.05714063346385956
0	6048	0.020516393706202507
0	6056	0.001540990313515067
0	6016	-0.007666458375751972
0	5986	-0.005724025424569845
0	5936	-0.00949920155107975
0	5878	-0.010976117104291916
0	5798	-0.01508940476924181
0	5778	-0.003761519677937031
0	5712	-0.012386302463710308
0	5698	-0.0026238521095365286
0	5646	-0.009727990254759789
0	5634	-0.002241398673504591
0	5590	-0.008200387470424175
0	5564	-0.0048341513611376286
0	5602	0.007049395237118006
0	5570	-0.005921393632888794
0	5568	-0.0003692807804327458
0	5574	0.0011054474161937833
0	5548	-0.004779528826475143
0	5500	-0.008806800469756126
0	5442	-0.010624397546052933
0	5384	-0.010612214915454388
0	5322	-0.011342154815793037
0	5182	-0.0257393941283226
0	5066	-0.021362535655498505
0	4968	-0.0179950799793005
0	4870	-0.017711268737912178
0	4848	-0.003944254480302334
0	4832	-0.00286782905459404
0	4816	-0.0028818792197853327
0	4850	0.006165675353258848
0	4860	0.0018266618717461824
0	4906	0.008464284241199493
0	4950	0.008151770569384098
0	4972	0.0041021304205060005
0	5016	0.008253714069724083
0	5064	0.009052845649421215
0	5088	0.004547406453639269
0	5138	0.009515230543911457
0	5158	0.003820001380518079
0	5182	0.00459981570020318
0	5220	0.007304695434868336
0	5244	0.004625762812793255
0	5230	-0.002704373560845852
0	5246	0.0030973737593740225
0	5262	0.003104505594819784
0	5270	0.0015553510747849941
0	5254	-0.0031167210545390844
0	5274	0.003904013428837061
0	5266	-0.001564394449815154
0	5260	-0.0011750881094485521
0	5258	-0.00039216200821101665
0	5252	-0.0011774556478485465
0	5264	0.002355990232899785
0	5266	0.00039245441439561546
0	5254	-0.002351650269702077
0	5270	0.00312968622893095
0	5272	0.0003901931631844491
0	5270	-0.00038912022137083113
0	5264	-0.0011640540324151516
0	5276	0.0023213825188577175
0	5284	0.0015433488879352808
0	5266	-0.003463092492893338
0	5298	0.006142427679151297
0	5316	0.0034474392887204885
0	5280	-0.00687976973131299
0	5294	0.002670974237844348
0	5320	0.00495313573628664
0	5292	-0.005326299462467432
0	5282	-0.001900393981486559
0	5286	0.0007595609640702605
0	5296	0.0018976533319801092
0	5282	-0.0026554379146546125
0	5288	0.0011377714108675718
0	5292	0.0007582363323308527
0	5294	0.0003790080372709781
0	5282	-0.002273588441312313
0	5332	0.009472567588090897
0	5342	0.0018935807747766376
0	5364	0.004164090380072594
0	5462	0.018537668511271477
0	5422	-0.007556770462542772
0	5386	-0.0067940764129161835
0	5370	-0.003017046255990863
0	5270	-0.018843984231352806
0	5206	-0.012059846892952919
0	5182	-0.004523806739598513
0	5182	0.0
0	5208	0.004906277172267437
0	5208	0.0
0	5204	-0.0007553725736215711
0	5236	0.006045720539987087
0	5252	0.0030237745959311724
0	5292	0.007560103200376034
0	5922	0.11907611787319183
0	5726	-0.03690500184893608
1	4782	-0.17725037038326263
1	2230	-0.4807173013687134
0	3488	0.24165663123130798
0	4910	0.2763526141643524
0	5766	0.16675756871700287
0	5994	0.04427872225642204
0	6064	0.013533194549381733
0	6066	0.00038472391315735877
0	6042	-0.004593770019710064
0	5984	-0.011048741638660431
0	5940	-0.008345239795744419
0	5872	-0.01284375973045826
0	5810	-0.011670808307826519
0	5770	-0.007507507689297199
0	5740	-0.005616365000605583
0	5706	-0.006354190409183502
0	5660	-0.00858166255056858
0	5650	-0.0018624055664986372
0	5634	-0.002974678063765168
0	5630	-0.0007419956964440644
0	5598	-0.0059204441495239735
0	5600	0.0003690808662213385
0	5602	0.00036813432234339416
0	5578	-0.004406958352774382
0	5546	-0.005862667225301266
0	5504	-0.00767871318385005
0	5430	-0.013507099822163582
0	5400	-0.005469927564263344
0	5300	-0.018221132457256317
0	5214	-0.015729596838355064
0	5084	-0.023851752281188965
0	4964	-0.021976413205266
0	4876	-0.015851477161049843
0	4806	-0.012504912912845612
0	4802	-0.000715009227860719
0	4796	-0.0010787098435685039
0	4828	0.005794722121208906
0	4856	0.005108494311571121
0	4890	0.006249157711863518
0	4930	0.007404207717627287
0	4964	0.006334773730486631
0	4996	0.005998500622808933
0	5054	0.010932120494544506
0	5094	0.007575375027954578
0	5140	0.008749017491936684
0	5154	0.0026729118544608355
0	5182	0.005364669486880302
0	5206	0.004612368997186422
0	5230	0.004625525325536728
0	5240	0.001932317391037941
0	5256	0.003099493682384491
0	5246	-0.0019414711277931929
0	5242	-0.0007783717010170221
0	5252	0.0019504837691783905
0	5254	0.00039092529914341867
0	5246	-0.0015666818944737315
0	5250	0.0007846624357625842
0	5250	0.0
0	5244	-0.0011795389000326395
0	5258	0.002753267763182521
0	5254	-0.0007864211220294237
0	5248	-0.001178318983875215
0	5244	-0.0007840882171876729
0	5242	-0.000391103676520288
0	5252	0.0019499766640365124
0	5244	-0.0015554317506030202
0	5248	0.0007754642865620553
0	5248	0.0
0	5274	0.00501420721411705
0	5258	-0.0030780674424022436
0	5270	0.002303705085068941
0	5280	0.0019160023657605052
0	5278	-0.0003825066960416734
0	5286	0.0015278449282050133
0	5288	0.000381494959583506
0	5302	0.00266795395873487
0	5290	-0.002284670015797019
0	5296	0.0011415524641051888
0	5280	-0.003042403608560562
0	5282	0.0003801799612119794
0	5308	0.004941024351865053
0	5292	-0.0030396291986107826
0	5316	0.004558115731924772
0	5358	0.007972967810928822
0	5426	0.012899961322546005
0	5474	0.009095962159335613
0	5454	-0.003784534055739641
0	5364	-0.017008516937494278
0	5326	-0.007176220417022705
0	5250	-0.014345035888254642
0	5210	-0.0075503988191485405
0	5200	-0.0018881225259974599
0	5224	0.004532863385975361
0	5244	0.0037778618279844522
0	5234	-0.0018889070488512516
0	5248	0.0026447696145623922
0	5246	-0.0003778147220145911
0	5244	-0.000377819495042786
0	5414	0.03211546689271927
0	6124	0.1340111494064331
0	5718	-0.07621646672487259
1	4844	-0.1636132150888443
1	2254	-0.4861719310283661
0	3946	0.32373276352882385
0	5238	0.24933099746704102
0	5856	0.11930041015148163
0	6042	0.035778407007455826
0	6074	0.006125886924564838
0	6078	0.0007619531825184822
0	6042	-0.006823006086051464
0	5978	-0.012071827426552773
0	5942	-0.006761918310075998
0	5868	-0.01384316012263298
0	5814	-0.010067113675177097
0	5782	-0.005948839709162712
0	5744	-0.007048697676509619
0	5708	-0.006666583940386772
0	5672	-0.006656148470938206
0	5654	-0.0033217687159776688
0	5638	-0.002946737688034773
0	5634	-0.0007349338848143816
0	5622	-0.0021990910172462463
0	5638	0.0029245822224766016
0	5618	-0.003646529745310545
0	5644	0.004729737993329763
0	5588	-0.010161864571273327
0	5522	-0.011951902881264687
0	5468	-0.009762564674019814
0	5398	-0.01263811718672514
0	5328	-0.012639333494007587
0	5206	-0.022134598344564438
0	5066	-0.025479253381490707
0	4952	-0.020719487220048904
0	4844	-0.019313305616378784
0	4782	-0.011028234846889973
0	4770	-0.0021402835845947266
0	4758	-0.0021541924215853214
0	4786	0.005065367091447115
0	4826	0.007292882539331913
0	4866	0.007348798215389252
0	4894	0.005181475076824427
0	4950	0.010432709008455276
0	4970	0.0037490627728402615
0	5018	0.00904852245002985
0	5070	0.009851843118667603
0	5094	0.00456754257902503
0	5172	0.014905977994203568
0	5170	-0.0003835140378214419
0	5206	0.0069254739210009575
0	5234	0.00540199875831604
0	5254	0.003868621774017811
0	5262	0.0015512494137510657
0	5252	-0.0019435842987149954
0	5248	-0.0007793827098794281
0	5262	0.002734410809352994
0	5236	-0.005090851802378893
0	5262	0.005102574825286865
0	5266	0.0007863490027375519
0	5250	-0.0031495648436248302
0	5228	-0.004334861412644386
0	5242	0.0027603614144027233
0	5274	0.0063079046085476875
0	5256	-0.0035433536395430565
0	5276	0.003929221536964178
0	5270	-0.0011754410807043314
0	5270	0.0
0	5290	0.003893019864335656
0	5298	0.001551851280964911
0	5314	0.003093461040407419
0	5280	-0.006552995648235083
0	5302	0.004228925798088312
0	5304	0.00038344538188539445
0	5300	-0.0007651597261428833
0	5314	0.0026724357157945633
0	5282	-0.006096941418945789
0	5274	-0.0015221858629956841
0	5292	0.003421012545004487
0	5332	0.007596475072205067
0	5342	0.001897173235192895
0	5318	-0.004549303092062473
0	5396	0.014777391217648983
0	5460	0.012114175595343113
0	5398	-0.01172096561640501
0	5378	-0.003777481382712722
0	5322	-0.01056829746812582
0	5250	-0.013582684099674225
0	5182	-0.01282696146517992
0	5174	-0.0015098138246685266
0	5174	0.0
0	5204	0.005667791701853275
0	5210	0.0011337297037243843
0	5182	-0.005291805136948824
0	5220	0.007185900583863258
0	5226	0.001134873484261334
0	5282	0.010595492087304592
0	5840	0.10556852072477341
0	6072	0.0437350757420063
1	4858	-0.22773601114749908
0	1942	-0.5485258102416992
0	3466	0.292870432138443
0	4938	0.28620314598083496
0	5858	0.17929993569850922
0	6086	0.044275857508182526
0	6142	0.010819722898304462
0	6122	-0.003843689803034067
0	6100	-0.004205428529530764
0	6044	-0.010648681782186031
0	5978	-0.012490695342421532
0	5926	-0.009801210835576057
0	5854	-0.01352129690349102
0	5834	-0.003743355628103018
0	5776	-0.01082614716142416
0	5734	-0.007824240252375603
0	5672	-0.011526020243763924
0	5670	-0.0003711309691425413
0	5654	-0.002962670521810651
0	5662	0.0014776504831388593
0	5632	-0.005524862091988325
0	5648	0.0029383318033069372
0	5644	-0.0007324576145038009
0	5604	-0.00730495760217309
0	5564	-0.007287479005753994
0	5554	-0.001817653072066605
0	5484	-0.012697875499725342
0	5430	-0.009780245833098888
0	5318	-0.02026684768497944
0	5218	-0.018152553588151932
0	5024	-0.035398878157138824
0	4888	-0.024790678173303604
0	4776	-0.02005682699382305
0	4736	-0.007107573561370373
0	4692	-0.007827695459127426
0	4724	0.005732506513595581
0	4756	0.005779511760920286
0	4778	0.004006848204880953
0	4832	0.00991589855402708
0	4856	0.004441538359969854
0	4906	0.009321518242359161
0	4992	0.016140535473823547
0	5034	0.00792891625314951
0	5068	0.006451939232647419
0	5110	0.008008847944438457
0	5174	0.012255840934813023
0	5214	0.007687379606068134
0	5224	0.0019275002414360642
0	5244	0.0038660787977278233
0	5258	0.002713423687964678
0	5262	0.0007772926473990083
0	5260	-0.00038958003278821707
0	5278	0.0035150758922100067
0	5268	-0.001957483356818557
0	5256	-0.0023541413247585297
0	5276	0.0039314874447882175
0	5248	-0.0055141267366707325
0	5242	-0.001183431944809854
0	5238	-0.0007899309857748449
0	5246	0.0015806943411007524
0	5264	0.003555906703695655
0	5254	-0.0019723866134881973
0	5260	0.0011805910617113113
0	5276	0.003138280473649502
0	5272	-0.0007818098529241979
0	5284	0.0023366003297269344
0	5296	0.0023281380999833345
0	5266	-0.00580009026452899
0	5288	0.004240064881742001
0	5306	0.003459010738879442
0	5292	-0.0026826090179383755
0	5318	0.0049697356298565865
0	5306	-0.002288969699293375
0	5314	0.0015233452431857586
0	5282	-0.006083881948143244
0	5298	0.003038628725335002
0	5298	0.0
0	5312	0.0026553035713732243
0	5382	0.013269136659801006
0	5468	0.016287878155708313
0	5418	-0.009457158856093884
0	5382	-0.0068024639040231705
0	5296	-0.016237853094935417
0	5182	-0.021522156894207
0	5214	0.006044578738510609
0	5182	-0.006046177353709936
0	5182	0.0
0	5210	0.0052957418374717236
0	5208	-0.00037834359682165086
0	5208	0.0
0	5228	0.0037850593216717243
0	5246	0.0034073269926011562
0	5596	0.06625692546367645
0	6218	0.11749890446662903
1	5222	-0.18703989684581757
0	2532	-0.5053161382675171
0	2586	0.010321758687496185
0	4120	0.29836615920066833
0	5362	0.2433798909187317
0	5992	0.12339391559362411
0	6086	0.018329065293073654
0	6088	0.0003879778669215739
0	6044	-0.008493224158883095
0	6018	-0.004995004739612341
0	5952	-0.012622721493244171
0	5894	-0.011045515537261963
0	5860	-0.006450552027672529
0	5804	-0.010586811229586601
0	5780	-0.004523181356489658
0	5702	-0.014663675799965858
0	5672	-0.005631616804748774
0	5668	-0.0007496907492168248
0	5640	-0.005238475278019905
0	5632	-0.0014935033395886421
0	5626	-0.0011169995414093137
0	5630	0.0007427672971971333
0	5640	0.0018517832504585385
0	5622	-0.0033238132018595934
0	5602	-0.0036837838124483824
0	5566	-0.0066148098558187485
0	5504	-0.011367247439920902
0	5438	-0.012080241926014423
0	5344	-0.017185062170028687
0	5230	-0.02087351307272911
0	5112	-0.0217369943857193
0	4996	-0.02138301357626915
0	4876	-0.02179044857621193
0	4774	-0.018268655985593796
0	4778	0.000713631568942219
0	4784	0.001074178027920425
0	4826	0.0075738453306257725
0	4826	0.0
0	4860	0.0062255859375
0	4904	0.008115286007523537
0	4948	0.00817124918103218
0	4990	0.007848609238862991
0	5034	0.008268915116786957
0	5084	0.009445367380976677
0	5156	0.013663276098668575
0	5154	-0.0003810394846368581
0	5182	0.005353182554244995
0	5210	0.005369951017200947
0	5250	0.007693886291235685
0	5266	0.003085269359871745
0	5270	0.0007731360965408385
0	5282	0.0023247404024004936
0	5256	-0.005048282444477081
0	5274	0.0035036723129451275
0	5272	-0.00039017791277728975
0	5238	-0.006647289730608463
0	5246	0.0015674186870455742
0	5252	0.001177548081614077
0	5256	0.0007859884644858539
0	5250	-0.0011796625331044197
0	5268	0.0035385240335017443
0	5274	0.001178303500637412
0	5268	-0.001176163088530302
0	5236	-0.006256843451410532
0	5272	0.007017817813903093
0	5282	0.0019431562395766377
0	5278	-0.0007747633499093354
0	5278	0.0
0	5298	0.0038513382896780968
0	5310	0.0023043244145810604
0	5316	0.0011491758050397038
0	5372	0.010700500570237637
0	5452	0.015249326825141907
0	5414	-0.00722424266859889
0	5374	-0.007588596548885107
0	5328	-0.008714871481060982
0	5264	-0.012111730873584747
0	5182	-0.015510131604969501
0	5182	0.0
0	5202	0.0037852502427995205
0	5206	0.0007573558250442147
0	5216	0.0018941547023132443
0	5238	0.004168877378106117
0	5240	0.00037903193151578307
0	5232	-0.001516453456133604
0	5274	0.007963393814861774
0	5808	0.1012258306145668
0	6116	0.058178335428237915
1	5044	-0.20139524340629578
0	2434	-0.49098914861679077
0	3270	0.16009396314620972
0	4714	0.2800982594490051
0	5658	0.18377678096294403
0	5994	0.06524694710969925
0	6056	0.011980831623077393
0	6056	0.0
0	6046	-0.001913192099891603
0	6002	-0.0083770165219903
0	5946	-0.010612894780933857
0	5890	-0.010569627396762371
0	5822	-0.01278788410127163
0	5768	-0.010122975334525108
0	5756	-0.002243997296318412
0	5698	-0.010825472883880138
0	5684	-0.002608436392620206
0	5646	-0.007066437043249607
0	5636	-0.0018559303134679794
0	5612	-0.004444005433470011
0	5606	-0.0011080604745075107
0	5630	0.0044207037426531315
0	5618	-0.00220455857925117
0	5620	0.0003665017429739237
0	5594	-0.004752793814986944
0	5564	-0.005472122225910425
0	5512	-0.009466364048421383
0	5448	-0.011631147004663944
0	5378	-0.01270817220211029
0	5262	-0.021114200353622437
0	5140	-0.022321972995996475
0	5012	-0.023406071588397026
0	4906	-0.019083281978964806
0	4844	-0.011053401045501232
0	4796	-0.008550865575671196
0	4796	0.0
0	4820	0.00432837987318635
0	4828	0.0014535939553752542
0	4878	0.009153039194643497
0	4918	0.007374993991106749
0	4954	0.006682010367512703
0	4972	0.003361637471243739
0	5018	0.008640228770673275
0	5042	0.004530752543359995
0	5096	0.010240979492664337
0	5162	0.012569194659590721
0	5182	0.003821850521489978
0	5226	0.008435043506324291
0	5224	-0.0003844428574666381
0	5242	0.0034691437613219023
0	5256	0.002704652026295662
0	5248	-0.0015490066725760698
0	5254	0.0011646264465525746
0	5260	0.0011673757107928395
0	5258	-0.0003900358860846609
0	5242	-0.003127117408439517
0	5244	0.00039171139360405505
0	5234	-0.0019619897939264774
0	5222	-0.002357687335461378
0	5232	0.0019667488522827625
0	5250	0.0035408444236963987
0	5258	0.0015725742559880018
0	5242	-0.003140087239444256
0	5260	0.003524850122630596
0	5248	-0.002343536354601383
0	5254	0.0011683304328471422
0	5262	0.0015531568787992
0	5258	-0.0007743634050711989
0	5282	0.004633323755115271
0	5270	-0.002310654614120722
0	5290	0.003842409700155258
0	5282	-0.0015336639480665326
0	5278	-0.0007653158972971141
0	5290	0.0022921469062566757
0	5284	-0.001144266570918262
0	5290	0.0011429006699472666
0	5302	0.002283944981172681
0	5332	0.005705519113689661
0	5350	0.003421012545004487
0	5378	0.005317330826073885
0	5490	0.021251026540994644
0	5418	-0.01364118605852127
0	5400	-0.0034066392108798027
0	5362	-0.0071851760149002075
0	5286	-0.014361118897795677
0	5182	-0.019648592919111252
0	5196	0.002646002685651183
0	5180	-0.003024917794391513
0	5224	0.00832135509699583
0	5198	-0.004917102865874767
0	5224	0.004918157123029232
0	5228	0.0007567636203020811
0	5242	0.002649173839017749
0	5302	0.011353601701557636
0	5900	0.11312758922576904
0	5790	-0.02072421833872795
1	4832	-0.17988358438014984
1	2462	-0.4462156295776367
0	3400	0.17975777387619019
0	4808	0.2731117010116577
0	5674	0.16848249733448029
0	5972	0.057832635939121246
0	6064	0.017775030806660652
0	6052	-0.0023068049922585487
0	6052	0.0
0	6020	-0.006091757211834192
0	5960	-0.011369378305971622
0	5892	-0.012831964530050755
0	5860	-0.006017375271767378
0	5794	-0.012371289543807507
0	5728	-0.012339216656982899
0	5688	-0.007467237301170826
0	5670	-0.0033546206541359425
0	5652	-0.003349003382027149
0	5612	-0.0074288686737418175
0	5594	-0.003336257766932249
0	5598	0.0007395082502625883
0	5600	0.0003688403812702745
0	5596	-0.0007357810391113162
0	5600	0.0007341066375374794
0	5550	-0.0091538205742836
0	5516	-0.006212239153683186
0	5462	-0.009849222376942635
0	5412	-0.009107467718422413
0	5296	-0.021115224808454514
0	5208	-0.01607736572623253
0	5098	-0.020168190822005272
0	4952	-0.026725241914391518
0	4876	-0.013703569769859314
0	4830	-0.008221331983804703
0	4810	-0.003574024187400937
0	4810	0.0
0	4866	0.010129513218998909
0	4890	0.004372805822640657
0	4904	0.0025689329486340284
0	4936	0.00591336889192462
0	4990	0.010045887902379036
0	5010	0.003743215464055538
0	5036	0.004893104545772076
0	5090	0.01021540630608797
0	5152	0.011781100183725357
0	5140	-0.0022885622456669807
0	5194	0.010334532707929611
0	5180	-0.0026874840259552
0	5210	0.005776340141892433
0	5238	0.005405196454375982
0	5246	0.0015478876885026693
0	5272	0.0050420816987752914
0	5250	-0.004275442101061344
0	5254	0.0007790993549861014
0	5256	0.00039042672142386436
0	5262	0.0011735253501683474
0	5234	-0.005485535133630037
0	5252	0.0035316739231348038
0	5230	-0.004321012180298567
0	5212	-0.0035369014367461205
0	5254	0.008252553641796112
0	5254	0.0
0	5260	0.001175410347059369
0	5254	-0.0011724703945219517
0	5254	0.0
0	5260	0.0011658786097541451
0	5276	0.003099974012002349
0	5272	-0.0007729468634352088
0	5284	0.0023131489288061857
0	5306	0.004230443853884935
0	5290	-0.0030694068409502506
0	5284	-0.0011488237651064992
0	5268	-0.003058181842789054
0	5276	0.00152683409396559
0	5274	-0.00038125741411931813
0	5274	0.0
0	5278	0.0007612764020450413
0	5318	0.007608709391206503
0	5310	-0.001520411460660398
0	5350	0.007597244344651699
0	5434	0.015942910686135292
0	5468	0.006445415783673525
0	5420	-0.009088154882192612
0	5384	-0.006808811333030462
0	5306	-0.01474034320563078
0	5230	-0.014357863925397396
0	5182	-0.009069951251149178
0	5208	0.004914500284940004
0	5206	-0.0003781433042604476
0	5194	-0.0022692030761390924
0	5182	-0.0022694605868309736
0	5194	0.0022704910952597857
0	5230	0.0068140518851578236
0	5234	0.0007572601898573339
0	5316	0.015525794588029385
0	5984	0.12642894685268402
0	5772	-0.03994172066450119
1	4850	-0.17316938936710358
1	2194	-0.5001694560050964
0	3240	0.20087569952011108
0	4706	0.28530651330947876
0	5722	0.19848144054412842
0	6022	0.05844004079699516
0	6142	0.02326212450861931
0	6118	-0.004626535810530186
0	6094	-0.004601579625159502
0	6030	-0.012206907384097576
0	5972	-0.011009871028363705
0	5898	-0.013989186845719814
0	5872	-0.004896975122392178
0	5808	-0.012014718726277351
0	5768	-0.007491665426641703
0	5730	-0.00710377749055624
0	5676	-0.010075378231704235
0	5680	0.0007449714466929436
0	5668	-0.002229737350717187
0	5636	-0.005929879378527403
0	5630	-0.0011087431339547038
0	5622	-0.0014744913205504417
0	5622	0.0
0	5592	-0.005500819068402052
0	5578	-0.0025606320705264807
0	5556	-0.004014451988041401
0	5504	-0.009469926357269287
0	5394	-0.019999757409095764
0	5290	-0.018899928778409958
0	5170	-0.021899675950407982
0	5032	-0.025277193635702133
0	4922	-0.02012612484395504
0	4826	-0.01727716624736786
0	4784	-0.0074875205755233765
0	4750	-0.006058518309146166
0	4760	0.001792264636605978
0	4778	0.0032505837734788656
0	4820	0.007647487334907055
0	4882	0.011378791183233261
0	4924	0.007765793241560459
0	4968	0.008191430941224098
0	4992	0.004496065899729729
0	5036	0.00828968733549118
0	5068	0.006060682702809572
0	5088	0.0038057060446590185
0	5128	0.0076443832367658615
0	5152	0.0046042874455451965
0	5182	0.005774708930402994
0	5218	0.006951864808797836
0	5214	-0.0007746733026579022
0	5238	0.004660737235099077
0	5234	-0.0007787656504660845
0	5272	0.007416949607431889
0	5244	-0.005477593746036291
0	5256	0.0023528796155005693
0	5248	-0.0015718945069238544
0	5224	-0.004725215490907431
0	5236	0.0023669572547078133
0	5242	0.001184709370136261
0	5250	0.0015801116824150085
0	5248	-0.0003948199446313083
0	5256	0.0015770384343340993
0	5278	0.004327358212321997
0	5286	0.0015689351130276918
0	5302	0.00312760635279119
0	5258	-0.008570092730224133
0	5262	0.0007765884511172771
0	5314	0.010064126923680305
0	5286	-0.005401928909122944
0	5276	-0.0019242611015215516
0	5290	0.0026878968346863985
0	5264	-0.0049815429374575615
0	5294	0.005737965926527977
0	5278	-0.003055223263800144
0	5308	0.0057208966463804245
0	5310	0.0003808604960795492
0	5362	0.009890945628285408
0	5460	0.01861584186553955
0	5422	-0.007205703761428595
0	5394	-0.005302628502249718
0	5348	-0.008701574057340622
0	5298	-0.009451676160097122
0	5240	-0.010959524661302567
0	5222	-0.003401917638257146
0	5218	-0.0007560864905826747
0	5216	-0.00037813378730788827
0	5240	0.004538520704954863
0	5270	0.005672578699886799
0	5274	0.0007561817765235901
0	5260	-0.0026461028028279543
0	5330	0.013229680247604847
0	5774	0.08387064188718796
0	6132	0.0674055740237236
1	5260	-0.16330811381340027
0	2388	-0.5379552841186523
0	2900	0.09768009930849075
0	4234	0.25837692618370056
0	5472	0.24138513207435608
0	5914	0.08609271794557571
0	6064	0.02909834124147892
0	6054	-0.0019300547428429127
0	6012	-0.008066581562161446
0	5972	-0.007645844481885433
0	5910	-0.011800083331763744
0	5882	-0.005307788494974375
0	5816	-0.012466002255678177
0	5770	-0.008660834282636642
0	5722	-0.00901431031525135
0	5690	-0.005999699700623751
0	5666	-0.004492251202464104
0	5634	-0.0059795198030769825
0	5606	-0.005222776439040899
0	5626	0.0037234241608530283
0	5608	-0.0033430736511945724
0	5604	-0.0007411341648548841
0	5576	-0.0051756007596850395
0	5594	0.003319808281958103
0	5536	-0.010673929937183857
0	5542	0.0011024008272215724
0	5480	-0.011372807435691357
0	5404	-0.013922134414315224
0	5304	-0.018310323357582092
0	5222	-0.015057659707963467
0	5072	-0.027698785066604614
0	4988	-0.015529289841651917
0	4878	-0.020015284419059753
0	4816	-0.011147603392601013
0	4794	-0.003941851668059826
0	4780	-0.002518650144338608
0	4838	0.010505850426852703
0	4838	0.0
0	4882	0.008089226670563221
0	4926	0.008145634084939957
0	4986	0.011179846711456776
0	5020	0.006371814291924238
0	5060	0.007536836434155703
0	5080	0.0037863964680582285
0	5132	0.009887685999274254
0	5158	0.004962400533258915
0	5182	0.004596233833581209
0	5224	0.00806833803653717
0	5246	0.0042373971082270145
0	5248	0.0003861103323288262
0	5256	0.001548207364976406
0	5256	0.0
0	5282	0.005054498091340065
0	5256	-0.005064145661890507
0	5262	0.0011712192790582776
0	5264	0.000391103676520288
0	5264	0.0
0	5266	0.00039236716111190617
0	5252	-0.0027490509673953056
0	5222	-0.00589282950386405
0	5254	0.006285684648901224
0	5252	-0.00039238767931237817
0	5254	0.00039171139360405505
0	5266	0.002344513079151511
0	5266	0.0
0	5292	0.005049458704888821
0	5272	-0.0038713673129677773
0	5270	-0.00038605567533522844
0	5270	0.0
0	5278	0.0015361179830506444
0	5290	0.0022989974822849035
0	5278	-0.0022945429664105177
0	5290	0.002290775766596198
0	5276	-0.0026686659548431635
0	5266	-0.0019038190366700292
0	5292	0.004945723805576563
0	5292	0.0
0	5294	0.00037985260132700205
0	5326	0.006074949633330107
0	5446	0.022769533097743988
0	5430	-0.003032140899449587
0	5384	-0.008707833476364613
0	5364	-0.0037829589564353228
0	5316	-0.009074410423636436
0	5244	-0.013606470078229904
0	5212	-0.006048006005585194
0	5216	0.0007562485407106578
0	5220	0.0007564773550257087
0	5218	-0.0003783483989536762
0	5218	0.0
0	5228	0.0018921953160315752
0	5244	0.0030280090868473053
0	5248	0.0007570404559373856
0	5658	0.07759958505630493
0	6066	0.07703054696321487
1	5256	-0.15216220915317535
0	2772	-0.46673595905303955
0	2750	-0.004199488554149866
0	4124	0.26655113697052
0	5460	0.26111429929733276
0	5892	0.084332175552845
0	6034	0.02761213481426239
0	6050	0.003096055006608367
0	6034	-0.0030809519812464714
0	6002	-0.006132069509476423
0	5932	-0.013351134955883026
0	5902	-0.00569872697815299
0	5852	-0.00946133490651846
0	5806	-0.008673898875713348
0	5740	-0.012407725676894188
0	5706	-0.006380103994160891
0	5660	-0.008617029525339603
0	5644	-0.0029920709785073996
0	5624	-0.003733572317287326
0	5582	-0.007825503125786781
0	5576	-0.0011155871907249093
0	5564	-0.0022261522244662046
0	5572	0.0014809146523475647
0	5568	-0.000738852599170059
0	5568	0.0
0	5518	-0.009196022525429726
0	5460	-0.010648454539477825
0	5406	-0.009900989942252636
0	5342	-0.011723186820745468
0	5248	-0.017251715064048767
0	5130	-0.02176532708108425
0	5040	-0.016613544896245003
0	4908	-0.02403116784989834
0	4860	-0.00862564705312252
0	4830	-0.0053673661313951015
0	4820	-0.001795869437046349
0	4834	0.0025304558221250772
0	4860	0.004733641631901264
0	4912	0.00953615177422762
0	4922	0.0018465402536094189
0	4980	0.010781604796648026
0	5014	0.006357755046337843
0	5052	0.007145274430513382
0	5078	0.004913509823381901
0	5134	0.010631700046360493
0	5152	0.0034304880537092686
0	5182	0.005737673491239548
0	5204	0.004220488481223583
0	5228	0.004617160651832819
0	5244	0.0030859436374157667
0	5254	0.0019329150673002005
0	5248	-0.0011621600715443492
0	5242	-0.001164535991847515
0	5246	0.0007780183805152774
0	5254	0.0015592920826748013
0	5250	-0.0007812397670932114
0	5260	0.001956513151526451
0	5246	-0.0027426958549767733
0	5246	0.0
0	5272	0.005102107767015696
0	5272	0.0
0	5278	0.0011761323548853397
0	5268	-0.0019571769516915083
0	5276	0.0015620728954672813
0	5278	0.0003894637047778815
0	5254	-0.004660013131797314
0	5262	0.0015489867655560374
0	5250	-0.0023170795757323503
0	5246	-0.0007704259478487074
0	5276	0.0057658301666378975
0	5278	0.00038351889816112816
0	5270	-0.0015311591560021043
0	5272	0.0003821655991487205
0	5278	0.0011448925361037254
0	5292	0.0026680217124521732
0	5278	-0.002665346721187234
0	5290	0.002282757544890046
0	5302	0.0022811954841017723
0	5294	-0.001519853132776916
0	5290	-0.000759609043598175
0	5276	-0.002657857723534107
0	5290	0.002657487755641341
0	5300	0.001897701295092702
0	5312	0.002276406157761812
0	5362	0.009481069631874561
0	5454	0.01743326708674431
0	5444	-0.0018924816977232695
0	5404	-0.007561150472611189
0	5388	-0.0030214523430913687
0	5278	-0.020753933116793633
0	5224	-0.010187910869717598
0	5220	-0.0007548879366368055
0	5214	-0.001132745179347694
0	5206	-0.0015108402585610747
0	5236	0.00566814886406064
0	5220	-0.0030238123144954443
0	5224	0.0007561150705441833
0	5254	0.005672221537679434
0	5272	0.003403246868401766
0	5604	0.06276071816682816
0	6110	0.0954560860991478
1	5152	-0.17978455126285553
0	2678	-0.46463003754615784
0	2614	-0.012217937037348747
0	4074	0.2835281789302826
0	5372	0.2540714144706726
0	5870	0.09741911292076111
0	6050	0.03507905825972557
0	6076	0.00504247285425663
0	6060	-0.003087452147156
0	6038	-0.004224324598908424
0	5990	-0.009171973913908005
0	5940	-0.009511731564998627
0	5890	-0.009473285637795925
0	5834	-0.010571490041911602
0	5790	-0.00828157365322113
0	5716	-0.013898801058530807
0	5698	-0.0033750422298908234
0	5660	-0.007112020161002874
0	5640	-0.0037368277553468943
0	5606	-0.006338316947221756
0	5606	0.0
0	5578	-0.005194998346269131
0	5576	-0.00037023783079348505
0	5570	-0.001108183292672038
0	5564	-0.0011059092357754707
0	5546	-0.0033107304479926825
0	5476	-0.012849695049226284
0	5426	-0.009165902622044086
0	5366	-0.010988743044435978
0	5278	-0.016140272840857506
0	5208	-0.012904494069516659
0	5086	-0.02248295210301876
0	4992	-0.017070423811674118
0	4918	-0.013247719965875149
0	4854	-0.01140007097274065
0	4832	-0.0039308643899858
0	4788	-0.007910633459687233
0	4828	0.007246288936585188
0	4842	0.0025554595049470663
0	4902	0.01103373896330595
0	4918	0.00296296295709908
0	4954	0.006711076013743877
0	4998	0.008252992294728756
0	5042	0.008299277164041996
0	5092	0.009478193707764149
0	5140	0.009139375761151314
0	5144	0.0007644091383554041
0	5182	0.00728760426864028
0	5182	0.0
0	5228	0.008874940685927868
0	5262	0.006575724110007286
0	5236	-0.005039670970290899
0	5252	0.003108204575255513
0	5228	-0.004672108683735132
0	5262	0.006633542012423277
0	5234	-0.005473667755723
0	5258	0.004701273050159216
0	5248	-0.0019616561476141214
0	5240	-0.0015711536398157477
0	5256	0.0031449012458324432
0	5238	-0.0035385240335017443
0	5244	0.0011792761506512761
0	5248	0.0007853711722418666
0	5236	-0.0023521725088357925
0	5254	0.0035209432244300842
0	5276	0.004292180296033621
0	5260	-0.0031125983223319054
0	5274	0.002715212991461158
0	5278	0.0007735447725281119
0	5248	-0.005785326007753611
0	5270	0.00423315679654479
0	5266	-0.0007679312257096171
0	5258	-0.0015328018926084042
0	5274	0.0030605217907577753
0	5276	0.00038200014387257397
0	5276	0.0
0	5272	-0.0007624469581060112
0	5300	0.0053327917121350765
0	5290	-0.0019031426636502147
0	5292	0.000380367913749069
0	5298	0.0011406410485506058
0	5294	-0.0007602539262734354
0	5300	0.0011399619979783893
0	5320	0.003798718797042966
0	5358	0.007213363889604807
0	5430	0.013659127987921238
0	5456	0.004926357418298721
0	5386	-0.013246703892946243
0	5388	0.000378148106392473
0	5314	-0.013978440314531326
0	5254	-0.01132973376661539
0	5182	-0.01359430979937315
0	5202	0.003777671605348587
0	5238	0.0068017784506082535
0	5216	-0.004156590439379215
0	5238	0.004157585091888905
0	5236	-0.0003780527913477272
0	5268	0.006049759220331907
0	5284	0.0030249941628426313
0	5514	0.043482642620801926
0	6256	0.14004403352737427
1	5348	-0.1703181266784668
1	2666	-0.5028184652328491
0	2926	0.049547091126441956
0	4474	0.2994621992111206
0	5538	0.2069019228219986
0	5974	0.08463937789201736
0	6100	0.024349395185709
0	6102	0.0003845167811959982
0	6092	-0.001912631094455719
0	6048	-0.008372871205210686
0	5958	-0.017045238986611366
0	5884	-0.013956470414996147
0	5810	-0.01390541810542345
0	5796	-0.0026227051857858896
0	5752	-0.008220303803682327
0	5708	-0.00820385292172432
0	5684	-0.0044678314588963985
0	5660	-0.004459585063159466
0	5646	-0.0025970491115003824
0	5636	-0.0018512348178774118
0	5608	-0.005171267781406641
0	5608	0.0
0	5582	-0.004777421243488789
0	5604	0.004033933859318495
0	5544	-0.010975610464811325
0	5518	-0.004747239872813225
0	5402	-0.021143704652786255
0	5384	-0.0032782505732029676
0	5306	-0.014197133481502533
0	5218	-0.01603751815855503
0	5104	-0.02090771310031414
0	4986	-0.021673645824193954
0	4880	-0.019196869805455208
0	4812	-0.012171401642262936
0	4782	-0.00535892928019166
0	4788	0.0010766322957351804
0	4808	0.0036144142504781485
0	4842	0.006192702334374189
0	4874	0.00587335554882884
0	4920	0.008506336249411106
0	4940	0.0037243023980408907
0	4990	0.009369962848722935
0	5036	0.008668777532875538
0	5064	0.005302427802234888
0	5096	0.006088048219680786
0	5132	0.006877666339278221
0	5182	0.009587482549250126
0	5220	0.007309941574931145
0	5226	0.0011574669042602181
0	5240	0.0027080699801445007
0	5256	0.0031028599478304386
0	5246	-0.0019437102600932121
0	5262	0.003117247484624386
0	5268	0.0011714021675288677
0	5258	-0.001956615364179015
0	5232	-0.005096706561744213
0	5252	0.00392788415774703
0	5248	-0.0007863490027375519
0	5230	-0.003541726851835847
0	5260	0.005905821919441223
0	5226	-0.006691420450806618
0	5244	0.003539683762937784
0	5252	0.0015705367550253868
0	5250	-0.0003916806890629232
0	5264	0.00273394794203341
0	5266	0.00038934240001253784
0	5258	-0.0015525539638474584
0	5288	0.0058051785454154015
0	5292	0.0007718034903518856
0	5288	-0.000769734033383429
0	5278	-0.0019198034424334764
0	5312	0.006513243541121483
0	5302	-0.001911729108542204
0	5316	0.002671891590580344
0	5314	-0.00038108788430690765
0	5442	0.024355901405215263
0	5448	0.0011394424363970757
0	5424	-0.004550107754766941
0	5384	-0.007573749404400587
0	5318	-0.012484237551689148
0	5268	-0.009453106671571732
0	5218	-0.009452391415834427
0	5202	-0.0030252989381551743
0	5212	0.0018915272084996104
0	5208	-0.0007568781147710979
0	5214	0.0011356753529980779
0	5240	0.004921818617731333
0	5260	0.0037863010074943304
0	5226	-0.006436224561184645
0	5296	0.01325138472020626
0	5884	0.11128635704517365
0	5640	-0.04598914086818695
1	4718	-0.1733473837375641
1	2312	-0.4538766145706177
0	4126	0.3486405313014984
0	5398	0.24626663327217102
0	5886	0.09439923614263535
0	6056	0.03275235369801521
0	6052	-0.0007668613106943667
0	6034	-0.0034341970458626747
0	6002	-0.006076410878449678
0	5918	-0.015877816826105118
0	5890	-0.0052724736742675304
0	5844	-0.00863006990402937
0	5782	-0.011593553237617016
0	5730	-0.009695342741906643
0	5680	-0.009305788204073906
0	5660	-0.00371696543879807
0	5634	-0.004825000651180744
0	5602	-0.00592929357662797
0	5608	0.001109795761294663
0	5590	-0.0033224227372556925
0	5608	0.0033148357179015875
0	5588	-0.0036739944480359554
0	5602	0.0025658882223069668
0	5570	-0.005850804504007101
0	5540	-0.005473253782838583
0	5486	-0.00983391609042883
0	5440	-0.008365563116967678
0	5344	-0.017435947433114052
0	5282	-0.011257444508373737
0	5166	-0.021139338612556458
0	5032	-0.02449009381234646
0	4918	-0.020795077085494995
0	4848	-0.012569732964038849
0	4826	-0.003933488391339779
0	4804	-0.003946943674236536
0	4834	0.005417248699814081
0	4838	0.000727651990018785
0	4892	0.009896151721477509
0	4952	0.011072970926761627
0	4982	0.005572479218244553
0	5002	0.003736641490831971
0	5044	0.007890583947300911
0	5088	0.008307947777211666
0	5118	0.0056893606670200825
0	5166	0.00913833174854517
0	5182	0.003056078916415572
0	5218	0.0068971686996519566
0	5238	0.003841967321932316
0	5248	0.0019254714716225863
0	5272	0.004631833638995886
0	5268	-0.000773554784245789
0	5250	-0.0034886423964053392
0	5262	0.002330851275473833
0	5264	0.00038933230098336935
0	5252	-0.002340641338378191
0	5248	-0.0007816774304956198
0	5238	-0.001957228174433112
0	5234	-0.0007839243626222014
0	5234	0.0
0	5254	0.0039236717857420444
0	5254	0.0
0	5242	-0.0023494400084018707
0	5262	0.003907470963895321
0	5272	0.0019484820077195764
0	5282	0.0019428541418164968
0	5280	-0.00038737169234082103
0	5260	-0.0038625947199761868
0	5266	0.0011556389508768916
0	5284	0.003458611899986863
0	5284	0.0
0	5304	0.0038273606915026903
0	5296	-0.0015280005754902959
0	5284	-0.002288329415023327
0	5254	-0.005713705439120531
0	5276	0.004186435602605343
0	5280	0.0007606394356116652
0	5300	0.003800836158916354
0	5298	-0.0003798862744588405
0	5326	0.005316388327628374
0	5460	0.025430161505937576
0	5412	-0.009098490700125694
0	5388	-0.004545110277831554
0	5348	-0.007568590342998505
0	5286	-0.011724955402314663
0	5182	-0.019664939492940903
0	5222	0.007566777057945728
0	5206	-0.0030272069852799177
0	5198	-0.0015139089664444327
0	5222	0.00454275868833065
0	5216	-0.0011357757030054927
0	5234	0.0034081442281603813
0	5240	0.0011361915385350585
0	5270	0.005681029055267572
0	5822	0.10452565550804138
0	5824	0.0003774059587158263
1	4852	-0.18279610574245453
1	2490	-0.4453970491886139
0	3376	0.17003147304058075
0	4770	0.2707953155040741
0	5686	0.17853431403636932
0	5962	0.05365404486656189
0	6036	0.014324428513646126
0	6072	0.006935525685548782
0	6026	-0.008817440830171108
0	5990	-0.006866734474897385
0	5934	-0.010633314959704876
0	5868	-0.012480460107326508
0	5818	-0.009421163238584995
0	5792	-0.0048830569721758366
0	5734	-0.010861286893486977
0	5696	-0.0071038659662008286
0	5660	-0.006718089338392019
0	5622	-0.007079338189214468
0	5608	-0.0026037469506263733
0	5606	-0.0003712227917276323
0	5596	-0.00185125763528049
0	5592	-0.0007387979421764612
0	5578	-0.002579662250354886
0	5542	-0.006617971230298281
0	5528	-0.0025686188600957394
0	5518	-0.001831233617849648
0	5466	-0.00950593501329422
0	5394	-0.013143963180482388
0	5300	-0.017147235572338104
0	5248	-0.009515908546745777
0	5106	-0.026077374815940857
0	4972	-0.024570025503635406
0	4910	-0.011198343709111214
0	4856	-0.009664141573011875
0	4838	-0.0032197285909205675
0	4828	-0.001797828241251409
0	4846	0.003258232958614826
0	4862	0.002917153062298894
0	4906	0.00808159913867712
0	4962	0.010356689803302288
0	4996	0.006328092887997627
0	5038	0.007862812839448452
0	5078	0.007527381181716919
0	5088	0.0018906212644651532
0	5114	0.004937521647661924
0	5152	0.007244810927659273
0	5180	0.0053568012081086636
0	5206	0.004989445209503174
0	5222	0.003078620182350278
0	5260	0.007329870015382767
0	5262	0.00038664278690703213
0	5278	0.0030998140573501587
0	5276	-0.0003882640739902854
0	5270	-0.0011670729145407677
0	5252	-0.003507404588162899
0	5242	-0.0019520575879141688
0	5250	0.0015644555678591132
0	5256	0.0011749961413443089
0	5268	0.002352111041545868
0	5238	-0.005881506949663162
0	5230	-0.001568504492752254
0	5254	0.004701703321188688
0	5242	-0.002346530556678772
0	5276	0.006634146440774202
0	5286	0.001945903874002397
0	5266	-0.0038805315271019936
0	5296	0.005804354790598154
0	5302	0.0011575116077437997
0	5292	-0.0019237427040934563
0	5286	-0.0011513957288116217
0	5286	0.0
0	5298	0.002293782541528344
0	5294	-0.000763329619076103
0	5288	-0.0011434233747422695
0	5290	0.0003806574968621135
0	5300	0.0019011648837476969
0	5286	-0.002659136662259698
0	5294	0.001518487581051886
0	5286	-0.0015176425222307444
0	5308	0.004171828739345074
0	5332	0.004549705423414707
0	5410	0.014780005440115929
0	5446	0.006815858650952578
0	5382	-0.012104094959795475
0	5388	0.0011339582270011306
0	5304	-0.01586182601749897
0	5234	-0.01321303192526102
0	5204	-0.005663298070430756
0	5174	-0.005665151868015528
0	5182	0.0015116016147658229
0	5222	0.00756067456677556
0	5222	0.0
0	5212	-0.001890645013190806
0	5234	0.004160205367952585
0	5264	0.005674510262906551
0	5400	0.0257280133664608
0	6174	0.14629904925823212
0	5498	-0.12707245349884033
1	4580	-0.17235121130943298
0	2294	-0.4311092495918274
0	3694	0.2690824270248413
0	5154	0.2835061550140381
0	5818	0.12905733287334442
0	6032	0.041453052312135696
0	6062	0.005783392582088709
0	6054	-0.001534624956548214
0	6040	-0.0026727078948169947
0	5980	-0.011399764567613602
0	5926	-0.01021540630608797
0	5886	-0.0075365519151091576
0	5818	-0.012765797786414623
0	5794	-0.00449191452935338
0	5772	-0.0041077472269535065
0	5714	-0.010807587765157223
0	5692	-0.004090993665158749
0	5630	-0.011507480405271053
0	5650	0.0037046184297651052
0	5614	-0.006651229225099087
0	5620	0.0011057461379095912
0	5610	-0.001837874879129231
0	5582	-0.005132591817528009
0	5570	-0.002194854198023677
0	5540	-0.005475518759340048
0	5492	-0.008743382059037685
0	5416	-0.013822034932672977
0	5346	-0.012719102203845978
0	5248	-0.017812568694353104
0	5156	-0.01681634783744812
0	5002	-0.02820788323879242
0	4898	-0.019000524654984474
0	4830	-0.012229482643306255
0	4812	-0.003215319011360407
0	4780	-0.005727787036448717
0	4822	0.007564568892121315
0	4854	0.005805655848234892
0	4854	0.0
0	4920	0.012151115573942661
0	4946	0.004819932393729687
0	4996	0.009328706189990044
0	5016	0.0037531903944909573
0	5046	0.005660591181367636
0	5116	0.013272490352392197
0	5140	0.004570151679217815
0	5174	0.006500458810478449
0	5162	-0.002302202396094799
0	5206	0.00847011711448431
0	5212	0.0011581670260056853
0	5236	0.004645760636776686
0	5256	0.0038809331599622965
0	5248	-0.0015560367610305548
0	5252	0.0007798486622050405
0	5248	-0.0007815247518010437
0	5268	0.00391583563759923
0	5252	-0.0031382394954562187
0	5262	0.001964482245966792
0	5226	-0.007079274859279394
0	5242	0.003148821182549
0	5248	0.0011808543931692839
0	5236	-0.0023602843284606934
0	5260	0.004713337868452072
0	5248	-0.0023510970640927553
0	5244	-0.0007815654971636832
0	5252	0.0015587451634928584
0	5250	-0.0003884953330270946
0	5282	0.006198747083544731
0	5304	0.004249893594533205
0	5290	-0.0026966638397425413
0	5304	0.0026902728714048862
0	5292	-0.002300672233104706
0	5302	0.0019136070040985942
0	5300	-0.0003820244746748358
0	5290	-0.0019070382695645094
0	5310	0.0038098625373095274
0	5306	-0.000761150848120451
0	5276	-0.005703855771571398
0	5274	-0.0003799825208261609
0	5322	0.009115654975175858
0	5334	0.002277327934280038
0	5376	0.007965709082782269
0	5466	0.017056437209248543
0	5430	-0.0068131922744214535
0	5360	-0.013233015313744545
0	5362	0.000377819495042786
0	5312	-0.00943989958614111
0	5226	-0.016230499371886253
0	5224	-0.0003775389341171831
0	5224	0.0
0	5200	-0.0045310379937291145
0	5198	-0.00037770054768770933
0	5226	0.005289073102176189
0	5242	0.0030229748226702213
0	5244	0.000377886084606871
0	5266	0.004156746901571751
0	5522	0.04836515337228775
0	6228	0.13315394520759583
0	5516	-0.1334916651248932
1	4166	-0.25277426838874817
0	2598	-0.29566681385040283
0	4010	0.2708578407764435
0	5244	0.23866932094097137
0	5830	0.11338131874799728
0	6032	0.038950517773628235
0	6066	0.006524910219013691
0	6048	-0.0034377386327832937
0	6004	-0.008363853208720684
0	5976	-0.005298013333231211
0	5914	-0.011679602786898613
0	5852	-0.011636345647275448
0	5804	-0.008979683741927147
0	5732	-0.013433671556413174
0	5706	-0.00484303617849946
0	5678	-0.005206654313951731
0	5644	-0.006309928838163614
0	5632	-0.0022231554612517357
0	5626	-0.001109385397285223
0	5618	-0.0014755429001525044
0	5620	0.0003679943038150668
0	5624	0.0007342053577303886
0	5592	-0.0058584450744092464
0	5566	-0.004748569335788488
0	5534	-0.005832321010529995
0	5470	-0.011643985286355019
0	5410	-0.010901295579969883
0	5322	-0.015974633395671844
0	5222	-0.01817498728632927
0	5140	-0.014994880184531212
0	4990	-0.027492668479681015
0	4908	-0.014954043552279472
0	4816	-0.0165453739464283
0	4802	-0.002505667507648468
0	4782	-0.0035889889113605022
0	4810	0.005056281574070454
0	4838	0.005093749612569809
0	4864	0.0047653960064053535
0	4916	0.00960023608058691
0	4940	0.004460745491087437
0	5014	0.013842815533280373
0	5062	0.009029798209667206
0	5110	0.009074753150343895
0	5116	0.0011393270688131452
0	5152	0.006862720008939505
0	5182	0.005739137064665556
0	5228	0.008827932178974152
0	5236	0.0015393891371786594
0	5240	0.0007716545951552689
0	5248	0.001547149382531643
0	5260	0.0023262726608663797
0	5258	-0.00038861611392349005
0	5240	-0.003505856031551957
0	5236	-0.0007808636291883886
